PPG=[138,135,138,138,142,134,137,134,136,132,136,141,141,139,135,138,137,137,137,136,136,136,136,135,138,138,139,137,142,138,141,142,143,145,151,157,161,171,182,190,192,200,207,210,213,217,212,206,211,223,257,324,451,623,896,1269,135,136,140,131,139,134,139,136,136,136,137,137,133,134,135,137,135,136,137,140,131,137,141,131,137,138,133,140,140,140,134,137,130,136,135,136,138,136,136,136,137,137,138,132,136,136,134,136,136,140,131,138,132,137,135,142,139,137,133,139,138,134,138,137,135,136,139,141,134,138,133,138,135,138,134,135,141,139,137,137,139,139,139,135,136,138,136,139,132,133,140,137,140,140,139,139,138,140,136,138,142,135,142,137,136,138,137,137,134,139,138,139,139,138,136,138,141,141,139,139,131,135,136,135,139,139,139,138,136,137,136,143,138,138,141,135,139,138,138,135,136,136,136,138,141,137,137,138,138,139,138,134,140,134,135,141,134,137,138,134,136,133,139,136,135,137,140,142,136,138,140,138,137,136,140,135,134,137,136,135,139,135,141,135,138,139,132,138,138,140,142,139,136,140,136,138,139,137,138,139,139,140,137,138,137,141,139,139,141,141,138,134,138,138,137,135,134,137,138,140,138,136,136,135,135,136,141,139,138,136,136,138,138,137,138,140,135,135,138,135,137,136,144,136,137,133,139,137,139,135,136,139,139,135,131,136,139,137,135,137,140,138,138,137,139,136,138,136,136,134,139,136,137,142,139,140,137,138,134,137,133,135,135,139,136,136,136,137,136,138,138,136,139,136,138,136,140,135,135,138,136,137,135,136,136,141,135,132,140,133,138,137,139,137,135,135,142,136,137,138,142,136,136,138,137,136,138,135,136,134,138,136,136,134,134,140,136,136,135,135,135,136,136,140,139,136,136,137,139,138,131,135,140,139,137,138,135,134,138,136,134,132,134,135,134,134,136,133,135,140,136,138,139,137,137,139,137,135,137,141,136,131,137,136,138,135,133,136,134,139,139,136,138,138,136,133,138,138,137,132,137,137,134,135,133,136,139,136,137,136,138,137,137,137,136,136,136,137,135,135,134,135,138,133,139,133,134,135,136,136,133,138,134,136,139,134,134,138,139,135,138,134,131,134,137,141,135,138,135,137,135,135,136,137,138,136,136,132,136,135,138,133,135,135,136,133,135,135,140,138,137,136,138,141,136,136,134,136,138,134,139,136,137,133,135,138,137,137,136,136,136,138,140,136,134,136,134,137,135,136,138,137,137,137,140,135,139,134,132,133,135,138,141,136,138,138,136,139,137,138,140,135,134,134,134,142,138,134,136,133,133,136,136,135,138,139,137,135,134,137,135,134,138,141,141,136,138,140,136,139,135,133,135,134,139,136,135,136,136,136,135,135,139,137,135,135,140,136,139,135,136,139,135,136,133,134,139,136,139,136,133,134,135,138,136,132,137,138,134,132,140,139,135,139,135,137,136,141,133,133,138,137,139,135,137,140,136,138,138,137,136,137,135,139,140,136,137,134,135,132,137,136,134,138,136,135,137,136,138,134,136,135,140,138,140,134,136,135,136,140,136,141,140,139,137,135,140,138,135,136,135,135,137,132,136,136,134,139,139,134,137,137,136,135,137,138,137,137,137,137,135,136,134,136,135,136,135,138,136,137,135,136,136,137,138,139,137,134,135,135,137,139,141,138,136,132,136,137,131,133,134,138,137,137,139,137,138,135,136,142,134,135,133,135,133,134,138,134,138,140,138,138,136,135,135,136,133,137,137,135,134,141,132,134,137,135,136,136,135,135,135,136,137,136,138,138,136,137,138,135,134,138,133,133,138,141,136,134,132,139,136,136,136,136,134,135,136,136,135,137,131,138,136,136,135,134,136,137,135,136,135,137,138,137,137,134,136,133,139,139,135,139,133,132,136,136,139,142,140,137,136,139,139,135,138,139,138,136,136,137,136,135,135,133,135,136,135,136,138,134,137,135,137,133,137,135,135,137,137,134,135,140,137,136,139,135,139,135,138,138,136,135,139,131,137,135,136,142,137,140,138,134,133,134,140,138,133,132,136,133,133,131,140,133,135,132,135,139,134,137,137,136,140,138,137,132,140,133,138,134,134,138,135,136,139,139,138,135,133,140,138,134,137,134,139,140,139,136,135,136,136,135,141,141,139,137,134,136,138,135,139,133,137,138,137,137,135,137,137,137,138,136,138,139,133,137,136,135,137,138,135,136,135,133,138,137,135,141,132,137,136,135,141,134,133,141,136,139,137,139,136,136,136,136,135,138,136,136,142,136,137,136,134,139,138,136,139,138,134,135,138,137,135,136,137,137,143,139,136,135,135,139,137,137,137,134,134,136,139,138,136,135,137,139,141,140,133,138,135,135,139,138,133,140,137,134,136,141,136,141,140,137,138,140,140,135,142,143,146,153,172,194,228,253,285,319,364,409,452,507,582,710,902,1124,1396,1706,2071,2482,2886,3258,3566,3821,3988,3951,3682,3231,2737,2379,2187,2115,2101,2116,2142,2202,2299,2421,2573,2759,2966,3170,3341,3513,3642,3667,3595,3456,3320,3240,3200,3235,3298,3296,3233,3169,3156,3239,3385,3643,4036,4389,4680,5004,5473,6153,7170,8491,9733,10468,10808,10986,11157,11259,11169,10884,10348,9480,8530,7748,7130,6683,6354,6131,6130,6423,6967,7638,7859,7618,7127,6607,6233,5992,5744,5367,4914,4445,3976,3427,2738,2024,1411,974,692,501,383,311,259,225,202,187,178,172,163,163,162,162,163,162,156,157,155,160,153,160,157,153,158,165,159,163,167,160,158,164,162,163,159,164,155,153,154,149,148,148,151,147,144,142,146,146,142,141,143,141,137,143,140,139,141,137,141,140,138,138,135,138,137,138,141,138,140,137,141,144,139,138,143,143,142,139,146,140,137,140,142,144,141,142,146,140,145,141,142,148,141,143,140,142,146,140,141,139,139,142,139,142,143,141,142,142,139,139,141,140,138,137,138,140,138,139,139,140,143,141,139,141,139,138,140,141,142,143,140,141,143,140,145,145,144,145,143,140,142,142,146,142,141,142,143,141,145,143,147,150,144,149,150,149,142,147,149,144,148,147,147,145,146,144,145,141,144,144,144,151,151,150,148,149,150,150,148,147,153,152,154,158,158,157,156,158,160,163,162,160,158,159,162,164,163,156,156,161,161,156,154,146,144,143,140,141,137,141,140,141,140,141,137,136,140,140,141,141,140,142,140,143,140,140,145,140,141,148,144,146,147,157,156,159,157,162,162,166,163,158,164,161,159,156,155,162,157,158,153,152,154,147,149,147,142,144,151,141,144,139,142,141,138,140,136,135,136,137,139,141,136,137,135,138,137,137,139,136,135,137,138,135,136,135,135,136,133,133,135,136,138,135,138,138,136,137,136,137,131,134,136,137,135,135,136,134,139,131,135,137,132,135,137,133,135,135,136,138,136,140,133,136,138,134,135,135,135,139,137,138,137,138,138,135,136,138,136,136,140,137,139,130,133,136,133,134,132,135,141,134,138,140,137,137,139,134,134,140,136,134,137,136,133,136,140,135,137,142,134,141,138,136,139,135,137,134,136,135,138,139,135,136,139,139,135,135,136,137,135,137,135,136,135,140,131,136,136,136,134,139,140,136,139,134,137,140,136,136,139,134,134,134,138,140,137,140,139,139,138,137,138,139,134,134,136,141,138,137,137,137,135,134,138,133,137,137,134,137,137,134,136,141,137,135,134,139,136,135,134,141,136,139,137,132,139,136,136,134,133,136,139,137,138,135,140,139,139,139,136,141,136,132,136,138,136,137,137,136,134,134,137,139,134,136,138,137,136,136,135,136,142,137,139,139,134,135,134,136,137,139,135,140,135,140,135,136,134,135,134,137,137,136,136,137,134,137,137,135,134,135,135,134,135,133,137,139,139,133,134,134,132,133,133,136,138,140,134,136,132,137,138,137,138,135,136,141,139,134,138,133,137,136,136,135,136,138,132,136,133,134,138,132,134,134,138,136,137,133,134,135,137,133,138,135,134,135,137,136,135,136,137,133,135,135,134,135,135,134,135,138,134,136,135,137,137,138,133,138,138,136,139,133,137,137,137,136,138,136,137,136,138,134,138,134,136,137,137,133,139,137,140,138,133,133,137,138,137,136,135,136,139,135,138,136,137,137,133,135,137,132,139,135,139,135,134,138,136,138,137,136,135,137,138,142,135,137,138,140,136,136,138,137,137,136,137,134,137,138,135,134,136,136,139,137,137,136,137,136,135,138,135,135,136,136,139,133,134,135,138,138,134,135,139,139,136,135,133,137,136,140,136,138,138,136,136,137,138,138,136,136,136,136,133,138,133,137,135,138,138,135,134,136,137,133,137,137,135,136,134,134,133,135,138,137,135,138,135,135,134,133,132,135,134,136,136,137,137,138,135,136,135,138,138,132,139,131,133,134,139,135,138,134,138,136,137,136,138,136,134,139,134,139,136,134,134,137,137,135,136,134,136,136,137,136,139,136,138,136,138,141,138,138,138,139,135,135,142,143,136,137,143,144,144,150,151,153,158,166,178,192,216,256,311,386,472,573,675,770,826,837,842,879,951,1050,1146,1223,1289,1349,1388,1413,1480,1627,1873,2148,2415,2702,3171,3790,4391,5002,5656,6447,7650,9276,11307,14232,17899,22469,27256,30774,-29114,-25282,-21405,-17939,-14918,-12321,-10918,-9289,-7136,-5171,-3483,-4284,-8192,-16039,-13823,-12004,-10396,-8666,-7615,-7116,-6829,-6688,-6642,-6650,-6713,-6719,-6741,-6743,-6757,-6792,-6859,-6942,-7054,-7211,-7383,-7492,-7586,-7692,-7744,-7792,-7831,-7860,-7866,-7856,-7851,-7815,-7833,-7832,-7833,-7847,-7845,-7817,-7828,-7847,-7821,-7817,-7824,-7816,-7846,-7848,-7834,-7846,-7857,-7844,-7834,-7846,-7851,-7844,-7857,-7857,-7846,-7839,-7815,-7783,-7748,-7736,-7755,-7715,-7732,-7698,-7720,-7688,-7653,-7622,-7581,-7558,-7541,-7558,-7529,-7525,-7507,-7499,-7413,-7327,-7301,-7254,-7206,-7215,-7234,-7226,-7161,-7133,-7097,-7095,-7101,-7125,-7176,-7267,-7341,-7439,-7539,-7617,-7733,-7750,-7771,-7782,-7785,-7827,-7848,-7873,-7997,-7816,-7771,-7717,-7656,-7613,-7579,-7573,-7695,-7547,-7531,-7498,-7471,-7430,-7368,-7283,-7284,-7136,-7085,-7039,-6975,-6896,-6829,-6794,-6641,-6484,-6272,-6022,-5818,-5598,-5389,-5208,-4990,-4567,-4538,-4576,-4681,-4816,-4936,-5069,-5225,-5448,-5732,-6043,-6285,-6319,-6097,-6003,-6005,-6084,-6110,-5947,-5326,-4135,-3020,-2250,-1673,-884,-222,-1,-1,-1,-1,-1,-1,-1,-1,-1,-1,-1,-1,-1,-1,-1,-444,-1966,-2982,-3463,-3588,-3812,-4005,-4057,-3599,-3384,-3223,-3104,-3163,-3011,-2799,-2844,-2624,-2651,-2898,-3273,-3617,-3948,-4138,-4289,-4425,-4544,-4635,-4765,-4892,-5043,-5241,-5421,-5575,-5737,-5847,-5906,-5960,-5993,-6028,-6081,-6112,-6148,-6174,-6222,-6286,-6330,-6422,-6479,-6540,-6598,-6576,-6641,-6766,-6699,-6761,-6791,-6871,-6875,-6925,-6926,-7104,-6963,-6956,-6938,-6950,-6930,-6977,-7046,-7220,-7531,-7621,-7730,-7843,-7919,-7974,-7988,-7976,-7951,-7931,-7893,-7814,-7757,-7693,-7663,-7644,-7676,-7690,-7726,-7753,-7792,-7826,-7806,-7796,-7826,-7799,-7766,-7757,-7762,-7754,-7729,-7720,-7737,-7771,-7792,-7837,-7852,-7887,-7947,-7958,-7961,-7972,-7952,-7936,-7907,-7893,-7884,-7853,-7858,-7831,-7813,-7830,-7832,-7827,-7826,-7846,-7859,-7861,-7812,-7813,-7825,-7825,-7793,-7794,-7790,-7785,-7778,-7770,-7769,-7767,-7772,-7792,-7776,-7817,-7812,-7874,-7869,-7927,-8015,-8146,-8260,-8435,-8562,-8656,-8756,-8792,-8824,-8828,-8838,-8836,-8844,-8858,-8908,-8927,-8920,-8958,-8995,-8994,-8989,-8980,-8974,-8928,-8942,-8894,-8889,-8897,-8912,-8913,-8937,-8942,-9056,-8941,-8895,-8820,-8758,-8698,-8653,-8585,-8741,-8515,-8497,-8450,-8415,-8376,-8356,-8336,-8421,-8284,-8270,-8249,-8233,-8196,-8184,-8180,-8166,-8170,-8154,-8172,-8169,-8157,-8137,-8131,-8108,-8087,-8088,-8097,-8082,-8064,-8049,-8051,-8044,-8052,-8045,-8058,-8125,-8251,-8411,-8587,-8769,-8899,-8970,-9027,-9067,-9057,-9047,-9033,-9016,-8986,-8984,-8964,-8948,-8964,-8947,-8953,-8927,-8913,-8868,-8827,-8812,-8780,-8787,-8767,-8756,-8776,-8776,-8784,-8807,-8845,-8838,-8837,-8838,-8830,-8812,-8802,-8805,-8796,-8756,-8748,-8741,-8713,-8719,-8704,-8676,-8676,-8675,-8689,-8669,-8691,-8670,-8666,-8663,-8670,-8651,-8654,-8657,-8646,-8642,-8595,-8574,-8559,-8564,-8530,-8515,-8516,-8537,-8573,-8679,-8854,-8989,-9120,-9184,-9233,-9264,-9256,-9250,-9224,-9210,-9292,-9172,-9142,-9149,-9152,-9153,-9125,-9124,-9262,-9100,-9087,-9052,-9034,-9012,-9006,-8992,-9068,-9009,-9020,-9022,-9017,-9046,-9018,-9026,-8993,-8999,-8970,-8934,-8898,-8886,-8862,-8836,-8804,-8795,-8755,-8744,-8700,-8678,-8658,-8664,-8646,-8645,-8602,-8617,-8639,-8621,-8625,-8613,-8574,-8570,-8548,-8531,-8492,-8497,-8478,-8452,-8485,-8478,-8532,-8641,-8813,-8967,-9117,-9231,-9314,-9311,-9308,-9327,-9333,-9317,-9304,-9292,-9270,-9276,-9268,-9295,-9280,-9287,-9313,-9273,-9267,-9267,-9231,-9207,-9162,-9180,-9165,-9156,-9179,-9194,-9191,-9177,-9200,-9195,-9194,-9176,-9188,-9151,-9133,-9134,-9089,-9061,-9051,-9010,-8988,-8967,-8937,-8921,-8915,-8876,-8891,-8899,-8882,-8890,-8868,-8877,-8856,-8871,-8907,-8851,-8846,-8832,-8842,-8814,-8795,-8779,-8904,-8754,-8735,-8733,-8719,-8732,-8755,-8808,-9039,-9057,-9184,-9284,-9335,-9385,-9413,-9422,-9440,-9412,-9397,-9405,-9383,-9385,-9405,-9420,-9429,-9434,-9422,-9445,-9441,-9423,-9401,-9377,-9376,-9358,-9341,-9362,-9325,-9335,-9331,-9319,-9348,-9345,-9362,-9339,-9348,-9336,-9321,-9323,-9305,-9290,-9280,-9262,-9243,-9259,-9216,-9201,-9189,-9179,-9172,-9170,-9152,-9154,-9149,-9148,-9136,-9128,-9129,-9146,-9104,-9108,-9088,-9072,-9086,-9062,-9061,-9037,-9028,-9009,-9019,-8978,-8965,-8935,-8902,-8890,-8873,-8865,-8858,-8923,-9048,-9179,-9292,-9363,-9426,-9455,-9495,-9500,-9525,-9531,-9523,-9526,-9494,-9506,-9505,-9472,-9505,-9519,-9537,-9513,-9528,-9500,-9490,-9465,-9461,-9429,-9419,-9387,-9384,-9413,-9401,-9479,-9421,-9418,-9422,-9414,-9407,-9411,-9348,-9520,-9359,-9330,-9311,-9310,-9309,-9289,-9294,-9395,-9252,-9247,-9246,-9234,-9241,-9209,-9205,-9254,-9222,-9207,-9200,-9156,-9165,-9158,-9132,-9120,-9129,-9093,-9088,-9071,-9074,-9073,-9034,-9010,-9008,-9002,-8982,-8979,-8983,-8967,-8947,-8938,-8915,-8893,-8907,-8907,-8850,-8865,-8850,-8839,-8869,-8972,-9117,-9220,-9303,-9340,-9405,-9428,-9434,-9433,-9436,-9416,-9402,-9397,-9380,-9386,-9387,-9409,-9402,-9416,-9409,-9417,-9398,-9410,-9396,-9364,-9333,-9344,-9335,-9309,-9325,-9327,-9331,-9316,-9302,-9321,-9313,-9311,-9298,-9289,-9269,-9263,-9258,-9231,-9245,-9214,-9184,-9202,-9169,-9163,-9171,-9165,-9137,-9131,-9098,-9119,-9085,-9122,-9074,-9088,-9060,-9055,-9035,-9023,-9018,-9021,-9007,-8994,-9004,-9005,-9033,-9001,-8969,-8960,-8936,-8920,-8900,-8924,-9013,-8874,-8847,-8842,-8820,-8821,-8798,-8834,-9058,-9044,-9143,-9213,-9272,-9311,-9355,-9348,-9423,-9359,-9332,-9330,-9300,-9305,-9303,-9289,-9249,-9289,-9250,-9278,-9276,-9278,-9247,-9244,-9233,-9211,-9228,-9220,-9209,-9210,-9192,-9235,-9232,-9224,-9217,-9210,-9212,-9218,-9192,-9182,-9172,-9167,-9136,-9134,-9116,-9121,-9102,-9093,-9061,-9046,-9043,-9061,-9047,-9037,-9019,-9039,-9038,-9023,-9011,-9004,-8995,-8990,-8974,-8969,-8980,-8942,-8943,-8942,-8912,-8903,-8875,-8867,-8854,-8824,-8792,-8790,-8777,-8766,-8740,-8731,-8791,-8851,-8950,-9032,-9146,-9202,-9228,-9261,-9279,-9250,-9267,-9278,-9258,-9254,-9225,-9199,-9200,-9201,-9195,-9192,-9183,-9179,-9169,-9232,-9224,-9135,-9110,-9158,-9127,-9159,-9157,-9157,-9154,-9270,-9120,-9123,-9102,-9131,-9211,-9078,-9316,-9063,-9045,-9037,-9024,-8998,-9128,-8985,-8979,-8965,-8942,-8931,-8916,-8921,-8964,-8890,-8887,-8885,-8883,-8859,-8826,-8841,-8837,-8819,-8795,-8804,-8808,-8792,-8766,-8747,-8759,-8756,-8732,-8723,-8711,-8700,-8682,-8667,-8644,-8628,-8622,-8625,-8670,-8727,-8842,-8957,-9068,-9142,-9203,-9224,-9253,-9273,-9254,-9248,-9205,-9210,-9184,-9171,-9159,-9150,-9130,-9165,-9161,-9178,-9164,-9167,-9149,-9130,-9104,-9107,-9103,-9102,-9111,-9112,-9081,-9115,-9122,-9189,-9114,-9083,-9083,-9072,-9081,-9066,-9061,-9034,-9015,-8997,-8984,-8952,-8948,-8928,-8920,-8902,-8921,-8909,-8891,-8882,-8893,-8878,-8866,-8859,-8853,-8865,-8856,-8818,-8819,-8827,-8820,-8806,-8794,-8796,-8781,-8781,-8755,-8747,-8700,-8676,-8679,-8649,-8661,-8658,-8652,-8664,-8734,-8831,-8936,-9036,-9121,-9160,-9194,-9237,-9231,-9217,-9220,-9207,-9182,-9161,-9149,-9131,-9129,-9214,-9128,-9124,-9113,-9125,-9104,-9083,-9100,-9073,-9070,-9062,-9069,-9053,-9069,-9080,-9065,-9063,-9085,-9071,-9066,-9049,-9040,-9011,-9019,-9020,-8996,-8968,-8967,-8941,-8945,-8923,-8920,-8909,-8892,-8870,-8876,-8874,-8852,-8835,-8835,-8843,-8821,-8801,-8803,-8802,-8824,-8801,-8823,-8809,-8769,-8777,-8733,-8737,-8743,-8720,-8706,-8678,-8679,-8645,-8632,-8617,-8604,-8622,-8731,-8723,-8846,-8957,-9031,-9098,-9152,-9176,-9211,-9196,-9188,-9168,-9148,-9139,-9119,-9085,-9093,-9090,-9066,-9097,-9081,-9083,-9070,-9063,-9064,-9044,-9030,-9068,-9058,-9036,-9049,-9068,-9057,-9068,-9065,-9123,-9057,-9036,-9015,-9002,-9010,-8986,-8955,-8960,-8931,-8925,-8912,-8907,-8983,-8868,-8840,-8833,-8852,-8844,-8814,-8843,-8954,-8794,-8810,-8793,-8780,-8787,-8772,-8773,-8851,-8767,-8739,-8728,-8723,-8703,-8685,-8694,-8657,-8666,-8633,-8629,-8628,-8601,-8582,-8588,-8569,-8655,-8757,-8854,-8970,-9063,-9117,-9135,-9149,-9159,-9147,-9153,-9128,-9106,-9108,-9080,-9075,-9036,-9033,-9024,-9042,-9017,-9025,-9037,-9023,-8998,-9024,-9000,-9042,-9019,-9030,-9041,-9013,-9025,-9040,-9022,-8988,-9013,-8993,-8988,-8967,-8957,-8930,-8930,-8925,-8904,-8891,-8860,-8875,-8838,-8838,-8828,-8798,-8804,-8812,-8802,-8794,-8785,-8773,-8742,-8769,-8755,-8765,-8768,-8757,-8722,-8738,-8726,-8714,-8685,-8692,-8680,-8658,-8625,-8619,-8614,-8590,-8576,-8592,-8651,-8758,-8881,-8982,-9036,-9112,-9190,-9190,-9180,-9167,-9173,-9143,-9136,-9108,-9084,-9166,-9081,-9078,-9061,-9051,-9057,-9039,-9010,-9156,-9033,-9033,-9026,-9034,-9031,-9038,-9046,-9124,-9027,-9030,-9006,-8994,-8991,-8969,-8951,-8964,-8958,-8944,-8934,-8918,-8893,-8887,-8843,-8871,-8860,-8849,-8826,-8814,-8821,-8811,-8793,-8812,-8801,-8792,-8793,-8766,-8778,-8736,-8736,-8712,-8718,-8708,-8677,-8676,-8661,-8650,-8643,-8615,-8614,-8593,-8578,-8558,-8574,-8639,-8720,-8834,-8957,-9056,-9117,-9184,-9210,-9218,-9217,-9195,-9191,-9184,-9159,-9176,-9145,-9150,-9153,-9145,-9171,-9154,-9148,-9161,-9137,-9119,-9127,-9123,-9098,-9089,-9101,-9113,-9109,-9126,-9123,-9094,-9119,-9125,-9109,-9108,-9072,-9088,-9054,-9059,-9019,-9017,-8994,-8952,-8966,-8959,-8943,-8934,-8922,-8919,-8905,-8917,-8894,-8889,-8873,-8868,-8856,-8846,-8831,-8827,-8843,-8806,-8853,-8804,-8808,-8793,-8781,-8756,-8754,-8745,-8847,-8719,-8670,-8666,-8642,-8662,-8627,-8610,-8722,-8596,-8626,-8704,-8782,-8929,-9040,-9131,-9186,-9237,-9237,-9261,-9254,-9258,-9232,-9234,-9221,-9182,-9176,-9188,-9168,-9170,-9167,-9191,-9193,-9168,-9142,-9148,-9129,-9117,-9120,-9141,-9147,-9127,-9137,-9143,-9159,-9145,-9129,-9132,-9136,-9131,-9114,-9101,-9073,-9048,-9046,-9037,-9007,-9005,-8958,-8985,-8974,-8939,-8932,-8931,-8930,-8947,-8934,-8926,-8923,-8911,-8905,-8886,-8888,-8889,-8876,-8862,-8869,-8880,-8856,-8823,-8831,-8813,-8796,-8781,-8762,-8750,-8723,-8712,-8700,-8701,-8709,-8786,-8849,-8984,-9069,-9160,-9226,-9267,-9299,-9293,-9304,-9307,-9287,-9281,-9250,-9244,-9215,-9232,-9226,-9226,-9239,-9239,-9244,-9222,-9234,-9219,-9196,-9209,-9216,-9264,-9217,-9235,-9228,-9235,-9229,-9240,-9232,-9347,-9214,-9213,-9203,-9176,-9151,-9153,-9148,-9268,-9105,-9111,-9108,-9062,-9069,-9066,-9075,-9061,-9053,-9061,-9050,-9062,-9047,-9068,-9059,-9049,-9056,-9039,-9032,-9040,-9022,-9029,-8999,-8990,-8966,-8965,-8930,-8943,-8917,-8887,-8874,-8877,-8882,-8912,-8941,-9056,-9183,-9239,-9325,-9362,-9380,-9403,-9438,-9451,-9445,-9438,-9433,-9437,-9427,-9410,-9409,-9429,-9439,-9424,-9403,-9430,-9426,-9416,-9391,-9396,-9376,-9363,-9359,-9367,-9391,-9378,-9395,-9373,-9394,-9371,-9363,-9384,-9359,-9348,-9339,-9308,-9292,-9288,-9269,-9262,-9254,-9266,-9223,-9236,-9214,-9224,-9196,-9186,-9199,-9183,-9169,-9156,-9153,-9150,-9129,-9144,-9263,-9192,-9168,-9119,-9077,-9076,-9064,-9054,-9146,-8996,-9039,-8944,-8939,-8982,-8951,-8958,-9149,-9118,-9214,-9337,-9391,-9574,-9518,-9540,-9648,-9571,-9576,-9564,-9565,-9690,-9572,-9550,-9565,-9561,-9573,-9596,-9569,-9573,-9556,-9567,-9572,-9546,-9534,-9512,-9535,-9522,-9523,-9532,-9542,-9533,-9528,-9521,-9535,-9509,-9523,-9490,-9495,-9456,-9443,-9422,-9432,-9414,-9421,-9410,-9386,-9402,-9380,-9379,-9350,-9362,-9378,-9355,-9335,-9354,-9330,-9331,-9326,-9292,-9293,-9288,-9288,-9266,-9278,-9256,-9227,-9208,-9222,-9182,-9185,-9194,-9172,-9207,-9424,-9342,-9458,-9505,-9562,-9619,-9632,-9713,-9710,-9723,-9712,-9726,-9722,-9707,-9704,-9718,-9719,-9725,-9733,-9729,-9728,-9715,-9714,-9706,-9693,-9683,-9687,-9675,-9670,-9703,-9691,-9682,-9694,-9725,-9732,-9747,-9787,-9783,-9809,-9804,-9796,-9803,-9784,-9775,-9775,-9792,-9793,-9788,-9780,-9748,-9762,-9764,-9763,-9734,-9734,-9761,-9807,-9821,-9848,-9848,-9871,-9833,-9843,-9825,-9968,-9840,-9808,-9807,-9806,-9780,-9761,-9768,-9726,-9728,-9712,-9710,-9708,-9694,-9697,-9695,-9686,-9663,-9667,-9638,-9627,-9619,-9619,-9597,-9574,-9602,-9615,-9682,-9782,-9909,-10009,-10083,-10130,-10188,-10213,-10220,-10236,-10226,-10214,-10214,-10189,-10183,-10205,-10196,-10196,-10199,-10209,-10234,-10248,-10227,-10226,-10212,-10187,-10199,-10193,-10189,-10191,-10195,-10199,-10202,-10197,-10206,-10203,-10336,-10187,-10164,-10158,-10145,-10135,-10125,-10089,-10070,-10048,-10026,-10020,-10024,-10011,-10009,-10003,-10010,-9993,-9974,-9987,-9971,-9989,-9968,-9962,-9965,-9964,-9921,-9901,-9904,-9899,-9884,-9896,-9909,-9891,-9905,-9898,-9887,-9871,-9859,-9820,-9844,-9812,-9809,-9802,-9778,-9751,-9720,-9748,-9725,-9706,-9718,-9727,-9814,-9933,-10052,-10161,-10239,-10279,-10321,-10355,-10378,-10398,-10406,-10383,-10495,-10367,-10357,-10349,-10363,-10364,-10366,-10344,-10337,-10322,-10293,-10270,-10240,-10145,-10052,-9928,-9825,-9584,-8829,-7961,-6505,-5228,-4058,-3231,-3003,-2993,-3046,-3035,-2975,-2881,-2857,-2845,-2803,-2835,-2842,-2859,-2878,-2855,-2928,-2957,-3010,-3063,-3156,-3255,-3354,-3432,-3498,-3553,-3616,-3637,-3730,-3751,-3782,-3854,-3965,-4011,-4076,-4154,-4234,-4294,-4316,-4323,-4349,-4534,-4354,-4384,-4409,-4397,-4433,-4414,-4451,-4475,-4556,-4707,-4848,-4976,-5085,-5171,-5222,-5288,-5317,-5307,-5341,-5345,-5348,-5323,-5328,-5330,-5348,-5355,-5369,-5402,-5444,-5444,-5467,-5477,-5468,-5483,-5474,-5467,-5476,-5479,-5484,-5470,-5488,-5501,-5513,-5534,-5550,-5535,-5525,-5513,-5524,-5503,-5503,-5528,-5531,-5513,-5528,-5510,-5488,-5470,-5479,-5454,-5439,-5470,-5624,-5449,-5469,-5462,-5469,-5448,-5463,-5414,-5390,-5364,-5378,-5369,-5354,-5336,-5337,-5294,-5278,-5249,-5205,-5222,-5205,-5208,-5192,-5190,-5177,-5158,-5149,-5131,-5082,-5054,-5027,-5028,-5111,-5258,-5478,-5649,-5801,-5889,-5944,-5983,-5985,-6008,-6016,-6010,-5982,-5983,-5970,-5963,-5965,-5929,-5974,-5977,-5974,-5986,-5964,-5954,-5941,-5938,-5933,-5940,-5931,-5970,-5957,-6107,-5974,-5959,-5944,-5962,-5952,-5923,-5917,-5938,-5952,-5923,-5915,-5893,-5886,-5862,-5847,-5837,-5802,-5832,-5821,-5792,-5795,-5776,-5772,-5760,-5737,-5745,-5761,-5733,-5742,-5733,-5729,-5725,-5712,-5688,-5684,-5676,-5663,-5685,-5634,-5606,-5589,-5567,-5560,-5511,-5505,-5488,-5459,-5467,-5479,-5551,-5714,-5849,-5978,-6112,-6187,-6236,-6271,-6319,-6315,-6319,-6315,-6271,-6284,-6411,-6279,-6276,-6282,-6274,-6278,-6284,-6273,-6268,-6271,-6269,-6244,-6262,-6244,-6262,-6253,-6268,-6276,-6277,-6278,-6278,-6271,-6275,-6265,-6250,-6218,-6218,-6201,-6155,-6124,-6124,-6099,-6076,-6015,-6021,-6027,-6017,-6001,-5990,-5990,-5941,-5965,-5953,-5951,-5970,-5930,-5929,-5917,-5916,-5884,-5881,-5886,-5843,-5831,-5817,-5788,-5775,-5775,-5735,-5754,-5788,-5859,-6022,-6340,-6324,-6413,-6463,-6517,-6539,-6549,-6550,-6561,-6556,-6518,-6546,-6507,-6492,-6491,-6526,-6526,-6565,-6544,-6531,-6518,-6506,-6487,-6478,-6477,-6462,-6471,-6481,-6480,-6477,-6493,-6498,-6486,-6469,-6494,-6462,-6456,-6438,-6424,-6416,-6400,-6370,-6355,-6348,-6313,-6312,-6302,-6278,-6290,-6256,-6250,-6265,-6260,-6238,-6214,-6232,-6208,-6203,-6204,-6210,-6202,-6187,-6180,-6153,-6302,-6157,-6129,-6107,-6065,-6075,-6032,-6004,-5987,-5985,-5967,-5955,-5970,-6011,-6165,-6308,-6443,-6550,-6628,-6657,-6695,-6726,-6737,-6729,-6727,-6685,-6681,-6669,-6659,-6667,-6681,-6690,-6693,-6681,-6676,-6675,-6685,-6683,-6647,-6646,-6623,-6613,-6641,-6614,-6621,-6635,-6612,-6622,-6613,-6606,-6580,-6582,-6564,-6541,-6513,-6497,-6483,-6483,-6431,-6433,-6400,-6369,-6347,-6515,-6326,-6320,-6299,-6272,-6261,-6264,-6258,-6244,-6237,-6228,-6214,-6220,-6226,-6192,-6203,-6181,-6170,-6152,-6127,-6096,-6074,-6060,-6051,-6017,-5995,-5982,-5976,-6007,-6132,-6257,-6399,-6491,-6596,-6675,-6719,-6733,-6752,-6745,-6731,-6705,-6709,-6676,-6662,-6661,-6663,-6658,-6671,-6663,-6671,-6635,-6624,-6617,-6573,-6584,-6579,-6583,-6602,-6609,-6621,-6628,-6627,-6622,-6765,-6599,-6593,-6587,-6579,-6552,-6543,-6492,-6499,-6491,-6452,-6450,-6447,-6441,-6623,-6577,-6595,-6571,-6555,-6532,-6505,-6513,-6508,-6489,-6474,-6491,-6475,-6472,-6447,-6430,-6456,-6423,-6442,-6448,-6403,-6392,-6351,-6322,-6319,-6313,-6290,-6251,-6248,-6243,-6257,-6342,-6482,-6629,-6735,-6829,-6892,-6967,-6982,-7021,-6985,-7007,-6995,-7142,-6975,-6971,-6989,-6972,-6993,-6995,-7008,-7007,-7017,-7021,-6993,-6971,-6927,-6909,-6913,-6931,-6917,-6936,-6913,-6918,-6924,-6941,-6902,-6906,-6923,-6877,-6871,-6877,-6847,-6847,-6798,-6799,-6800,-6772,-6755,-6713,-6698,-6700,-6692,-6673,-6670,-6659,-6640,-6639,-6612,-6623,-6597,-6583,-6577,-6559,-6545,-6537,-6518,-6530,-6506,-6493,-6461,-6427,-6418,-6417,-6385,-6376,-6413,-6305,-6312,-6290,-6326,-6403,-6500,-6667,-6794,-6881,-6969,-7013,-7059,-7083,-7052,-7091,-7068,-7053,-7056,-7052,-7046,-7055,-7040,-7066,-7059,-7070,-7054,-7036,-7066,-7025,-6985,-6966,-6974,-6967,-6949,-6938,-6945,-6955,-6948,-6935,-6925,-6930,-6907,-6903,-6887,-6866,-6829,-6798,-6799,-6771,-6763,-6731,-6719,-6680,-6671,-6652,-6645,-6623,-6609,-6605,-6592,-6585,-6566,-6540,-6693,-6550,-6538,-6498,-6490,-6481,-6464,-6460,-6430,-6429,-6417,-6410,-6387,-6368,-6347,-6327,-6299,-6292,-6248,-6230,-6210,-6208,-6227,-6292,-6442,-6593,-6718,-6859,-6917,-6983,-6991,-7010,-7020,-7001,-6979,-6948,-6963,-6961,-6943,-6939,-6929,-6942,-6948,-6942,-6915,-6904,-6889,-6866,-6878,-6845,-6851,-6830,-6862,-6874,-6895,-6877,-6873,-6867,-6863,-6867,-6841,-6825,-6785,-6935,-6776,-6743,-6703,-6690,-6677,-6635,-6630,-6600,-6580,-6555,-6577,-6546,-6553,-6515,-6515,-6514,-6492,-6478,-6497,-6499,-6467,-6442,-6417,-6433,-6410,-6397,-6372,-6341,-6335,-6319,-6289,-6275,-6261,-6223,-6223,-6185,-6189,-6175,-6250,-6385,-6539,-6692,-6798,-6893,-6962,-6989,-7011,-7007,-7033,-6991,-7012,-6992,-6982,-6962,-6961,-6962,-6998,-6951,-6954,-6965,-6934,-6928,-6942,-7053,-6890,-6882,-6861,-6856,-6864,-6862,-6864,-6866,-6850,-6849,-6825,-6812,-6798,-6803,-6758,-6726,-6724,-6667,-6660,-6629,-6565,-6584,-6579,-6554,-6520,-6508,-6490,-6500,-6464,-6466,-6449,-6461,-6439,-6416,-6403,-6386,-6366,-6346,-6323,-6307,-6287,-6277,-6257,-6252,-6240,-6243,-6211,-6179,-6160,-6131,-6112,-6105,-6043,-6045,-6034,-5996,-5999,-6047,-6171,-6373,-6553,-6966,-6952,-6905,-7083,-7106,-7002,-6998,-6989,-6991,-6964,-6972,-6957,-6948,-6943,-6954,-6949,-6963,-6966,-6958,-6951,-6906,-6897,-6860,-6837,-6853,-6848,-6835,-6820,-6831,-6818,-6828,-6838,-6815,-6831,-6774,-6780,-6782,-6733,-6709,-6690,-6653,-6623,-6615,-6581,-6537,-6546,-6522,-6505,-6507,-6494,-6461,-6428,-6437,-6421,-6401,-6385,-6383,-6377,-6365,-6308,-6322,-6311,-6295,-6273,-6387,-6247,-6244,-6201,-6182,-6163,-6146,-6114,-6086,-6080,-6051,-6015,-5999,-5976,-5930,-5917,-5906,-5890,-5952,-6069,-6233,-6430,-6627,-6750,-6817,-6903,-6941,-6946,-6933,-6926,-6875,-6878,-6851,-6836,-6813,-6779,-6782,-6801,-6791,-6797,-6782,-6751,-6735,-6706,-6690,-6676,-6674,-6702,-6687,-6678,-6683,-6662,-6682,-6693,-6651,-6665,-6633,-6616,-6579,-6574,-6542,-6499,-6500,-6626,-6442,-6404,-6378,-6365,-6340,-6324,-6313,-6295,-6276,-6271,-6259,-6250,-6212,-6215,-6219,-6225,-6204,-6203,-6174,-6135,-6119,-6122,-6086,-6079,-6045,-6017,-5994,-5973,-5932,-5911,-5893,-5867,-5858,-5821,-5825,-5792,-5798,-5850,-5986,-6177,-6349,-6550,-6671,-6729,-6789,-6806,-6803,-6808,-6804,-6769,-6751,-6709,-6697,-6671,-6654,-6625,-6626,-6603,-6593,-6578,-6562,-6528,-6518,-6653,-6528,-6531,-6553,-6555,-6575,-6567,-6569,-6566,-6534,-6511,-6486,-6507,-6471,-6436,-6430,-6390,-6363,-6328,-6314,-6276,-6272,-6255,-6230,-6204,-6189,-6188,-6166,-6150,-6144,-6132,-6114,-6105,-6097,-6077,-6067,-6030,-6042,-6020,-5994,-5983,-5961,-5962,-5944,-5936,-5906,-5883,-5903,-5857,-5840,-5827,-5805,-5799,-5787,-5793,-5834,-5973,-6180,-6384,-6564,-6671,-6753,-6824,-7016,-6853,-6860,-6976,-7101,-6835,-6829,-6763,-6790,-6767,-6764,-6750,-6744,-6750,-6750,-6735,-6715,-6685,-6694,-6659,-6647,-6648,-6657,-6660,-6677,-6655,-6646,-6652,-6622,-6613,-6605,-6591,-6568,-6601,-6534,-6502,-6457,-6433,-6426,-6370,-6463,-6339,-6302,-6321,-6298,-6278,-6245,-6273,-6328,-6242,-6225,-6195,-6203,-6163,-6165,-6148,-6388,-6310,-6110,-6341,-6230,-6158,-6057,-6034,-6158,-6006,-5979,-5973,-5922,-5918,-5884,-5882,-5860,-5843,-5830,-5835,-5934,-6094,-6281,-6460,-6615,-6746,-6819,-6853,-6886,-6903,-6902,-6894,-6882,-6835,-6829,-6795,-6799,-6780,-6785,-6804,-6815,-6809,-6787,-6770,-6742,-6733,-6714,-6696,-6673,-6673,-6656,-6677,-6672,-6668,-6663,-6645,-6639,-6617,-6585,-6572,-6548,-6520,-6465,-6429,-6416,-6384,-6360,-6329,-6318,-6316,-6397,-6252,-6273,-6221,-6290,-6207,-6440,-6159,-6180,-6170,-6139,-6275,-6122,-6108,-6086,-6070,-6038,-6052,-6013,-5999,-5988,-5981,-5952,-5928,-5922,-5884,-5859,-5836,-5806,-5792,-5773,-5727,-5730,-5753,-5843,-6026,-6225,-6417,-6580,-6655,-6738,-6750,-6776,-6745,-6756,-6748,-6706,-6664,-6640,-6606,-6584,-6586,-6567,-6572,-6564,-6552,-6512,-6490,-6468,-6484,-6469,-6465,-6468,-6482,-6593,-6489,-6494,-6516,-6488,-6492,-6477,-6447,-6420,-6395,-6386,-6348,-6311,-6277,-6280,-6239,-6204,-6189,-6159,-6137,-6144,-6136,-6111,-6113,-6097,-6058,-6095,-6062,-6039,-6038,-6006,-5998,-5994,-5987,-5999,-5977,-5942,-5946,-5910,-5903,-5910,-5848,-5792,-5776,-5789,-5762,-5735,-5733,-5734,-5759,-5861,-6054,-6264,-6442,-6561,-6642,-6701,-6743,-6778,-6754,-6746,-6736,-6699,-6809,-6652,-6616,-6685,-6772,-6685,-6745,-6561,-6577,-6509,-6516,-6505,-6477,-6519,-6497,-6494,-6500,-6499,-6507,-6509,-6493,-6492,-6469,-6481,-6470,-6412,-6397,-6351,-6322,-6304,-6274,-6257,-6226,-6179,-6162,-6127,-6134,-6113,-6133,-6108,-6096,-6091,-6071,-6055,-6052,-6017,-6018,-6004,-6002,-5996,-5968,-5978,-5984,-5966,-5933,-5936,-5903,-5874,-5850,-5829,-5806,-5784,-5766,-5751,-5849,-5785,-5868,-6071,-6275,-6459,-6615,-6689,-6785,-6809,-6836,-6846,-6832,-6817,-6816,-6788,-6745,-6729,-6715,-6703,-6706,-6696,-6714,-6740,-6683,-6679,-6647,-6605,-6619,-6598,-6584,-6602,-6592,-6588,-6582,-6558,-6534,-6533,-6500,-6483,-6480,-6457,-6436,-6375,-6374,-6322,-6281,-6242,-6231,-6196,-6172,-6158,-6151,-6140,-6123,-6105,-6096,-6073,-6067,-6042,-6057,-6021,-6019,-6126,-5986,-5980,-5977,-5948,-5949,-5918,-5922,-5870,-5904,-5868,-5848,-5824,-5788,-5791,-5778,-5748,-5738,-5775,-5865,-6021,-6246,-6442,-6605,-6704,-6876,-6793,-6931,-7049,-7033,-6789,-6801,-6827,-6745,-6740,-6727,-6736,-6725,-6713,-6707,-6681,-6654,-6617,-6621,-6590,-6555,-6550,-6547,-6786,-6534,-6522,-6545,-6524,-6525,-6492,-6501,-6667,-6648,-6512,-6390,-6368,-6359,-6444,-6283,-6325,-6303,-6186,-6185,-6148,-6110,-6111,-6101,-6076,-6058,-6051,-6141,-6017,-6017,-5998,-5977,-6094,-5952,-5928,-5912,-5928,-5889,-5862,-5865,-5824,-5960,-5796,-5791,-5760,-5744,-5712,-5681,-5681,-5671,-5664,-5645,-5612,-5674,-5731,-5883,-6182,-6323,-6520,-6764,-6681,-6776,-6754,-6753,-6734,-6708,-6668,-6647,-6615,-6756,-6576,-6611,-6560,-6544,-6602,-6772,-6628,-6482,-6450,-6461,-6455,-6486,-6571,-6452,-6654,-6462,-6447,-6464,-6455,-6434,-6552,-6619,-6523,-6332,-6298,-6475,-6447,-6267,-6227,-6204,-6407,-6163,-6111,-6255,-6108,-6088,-6096,-6081,-6079,-6049,-6144,-6167,-6035,-6003,-5984,-5979,-5968,-5947,-5944,-5913,-5914,-5884,-5841,-5849,-5833,-5797,-5898,-5746,-5726,-5716,-5692,-5675,-5709,-5762,-6148,-6338,-6402,-6485,-6604,-6705,-6728,-6773,-6861,-6762,-6723,-6727,-6676,-6665,-6644,-6630,-6599,-6619,-6619,-6592,-6598,-6593,-6583,-6543,-6528,-6518,-6513,-6495,-6522,-6525,-6524,-6506,-6510,-6495,-6481,-6468,-6430,-6447,-6419,-6379,-6353,-6307,-6316,-6269,-6235,-6244,-6211,-6170,-6129,-6119,-6113,-6104,-6091,-6083,-6091,-6049,-6053,-6064,-6042,-5982,-5980,-5968,-5960,-5936,-5925,-5914,-5895,-5887,-5858,-5844,-5838,-5916,-5795,-5767,-5756,-5726,-5730,-5696,-5686,-5657,-5688,-5760,-5879,-6108,-6343,-6523,-6653,-6720,-6762,-6801,-6805,-6792,-6787,-6780,-6758,-6731,-6708,-6704,-6714,-6695,-6683,-6697,-6678,-6688,-6658,-6623,-6597,-6560,-6535,-6535,-6515,-6513,-6517,-6543,-6550,-6531,-6518,-6515,-6497,-6495,-6468,-6457,-6411,-6386,-6374,-6331,-6306,-6283,-6243,-6239,-6244,-6220,-6182,-6166,-6168,-6240,-6136,-6114,-6089,-6102,-6095,-6073,-6066,-6044,-6022,-6009,-6012,-5974,-5968,-5971,-5938,-5906,-5894,-5879,-5853,-5841,-5827,-5792,-5797,-5767,-5743,-5710,-5689,-5686,-5681,-5685,-5711,-5829,-6011,-6228,-6423,-6583,-6681,-6741,-6753,-6807,-6800,-6754,-6718,-6699,-6685,-6647,-6640,-6636,-6634,-6640,-6652,-6631,-6640,-6615,-6590,-6582,-6556,-6536,-6550,-6543,-6521,-6535,-6621,-6524,-6534,-6516,-6528,-6506,-6473,-6464,-6447,-6433,-6391,-6341,-6323,-6300,-6285,-6256,-6245,-6201,-6201,-6205,-6153,-6140,-6152,-6122,-6127,-6088,-6071,-6075,-6057,-6036,-6022,-6016,-6016,-5972,-5970,-5942,-5934,-5922,-5913,-5905,-5869,-5825,-5829,-5804,-5794,-5759,-5734,-5714,-5705,-5702,-5662,-5718,-5720,-5826,-5981,-6203,-6406,-6555,-6645,-6679,-6727,-6772,-6744,-6728,-6765,-6672,-6630,-6602,-6586,-6574,-6579,-6561,-6541,-6542,-6515,-6507,-6462,-6473,-6485,-6469,-6477,-6495,-6474,-6500,-6486,-6478,-6507,-6471,-6463,-6445,-6412,-6391,-6380,-6352,-6334,-6314,-6281,-6258,-6243,-6195,-6203,-6172,-6147,-6122,-6109,-6116,-6112,-6072,-6075,-6059,-6035,-6042,-6039,-6004,-5997,-5983,-5954,-5924,-5917,-5913,-5910,-5891,-5881,-5876,-5828,-5801,-5786,-5767,-5731,-5725,-5721,-5649,-5671,-5643,-5649,-5639,-5671,-5706,-5835,-6064,-6454,-6570,-6660,-6719,-6755,-6745,-6741,-6713,-6719,-6671,-6685,-6627,-6654,-6607,-6628,-6636,-6641,-6647,-6629,-6615,-6580,-6567,-6548,-6535,-6540,-6537,-6582,-6544,-6520,-6525,-6496,-6507,-6529,-6513,-6626,-6457,-6428,-6417,-6411,-6388,-6337,-6287,-6427,-6256,-6238,-6223,-6198,-6195,-6157,-6144,-6212,-6118,-6143,-6098,-6099,-6087,-6064,-6048,-6047,-5998,-6005,-5976,-5989,-5967,-5950,-5931,-5917,-5887,-5878,-5866,-5832,-5822,-5790,-5750,-5749,-5744,-5712,-5683,-5735,-5797,-5928,-6144,-6365,-6511,-6641,-6710,-6762,-6778,-6783,-6805,-6782,-6737,-6724,-6695,-6662,-6634,-6639,-6635,-6631,-6610,-6594,-6587,-6560,-6545,-6515,-6529,-6527,-6528,-6523,-6516,-6505,-6520,-6537,-6507,-6504,-6495,-6477,-6447,-6430,-6405,-6376,-6337,-6302,-6276,-6251,-6234,-6213,-6177,-6184,-6175,-6129,-6104,-6091,-6099,-6090,-6072,-6059,-6027,-6008,-6016,-6004,-5988,-6003,-5935,-5947,-5925,-5916,-5912,-5875,-5861,-5839,-5797,-5792,-5808,-5759,-5719,-5707,-5712,-5749,-5840,-6029,-6373,-6416,-6530,-6610,-6649,-6728,-6701,-6695,-6859,-6665,-6613,-6591,-6561,-6534,-6523,-6509,-6600,-6500,-6485,-6471,-6541,-6420,-6414,-6433,-6435,-6428,-6465,-6436,-6430,-6462,-6457,-6443,-6442,-6404,-6405,-6375,-6365,-6342,-6282,-6248,-6225,-6201,-6167,-6136,-6146,-6114,-6101,-6074,-6041,-6044,-6009,-6020,-6005,-5973,-5976,-5980,-5953,-5941,-5952,-5922,-5900,-5896,-5883,-5865,-5836,-5831,-5815,-5764,-5744,-5737,-5722,-5708,-5727,-5772,-5853,-6084,-6269,-6406,-6582,-6709,-6714,-6733,-6726,-6738,-6726,-6697,-6662,-6624,-6623,-6601,-6603,-6602,-6592,-6590,-6583,-6574,-6541,-6515,-6495,-6512,-6498,-6508,-6517,-6509,-6523,-6492,-6513,-6502,-6505,-6509,-6466,-6460,-6417,-6394,-6365,-6351,-6320,-6300,-6252,-6214,-6183,-6191,-6169,-6159,-6156,-6144,-6101,-6092,-6083,-6069,-6057,-6052,-6025,-6040,-6011,-5986,-6005,-5981,-5977,-5967,-5958,-5902,-5881,-5916,-5862,-5837,-5810,-5805,-5799,-5812,-5867,-6033,-6249,-6438,-6577,-6717,-6770,-6838,-6868,-6842,-6859,-6834,-6835,-6808,-6774,-6780,-6765,-6773,-6797,-6792,-6812,-6789,-6781,-6762,-6754,-6705,-6705,-6689,-6692,-6692,-6698,-6699,-6701,-6721,-6700,-6693,-6673,-6668,-6637,-6633,-6593,-6592,-6536,-6493,-6484,-6467,-6470,-6473,-6423,-6446,-6442,-6416,-6399,-6390,-6372,-6349,-6409,-6333,-6324,-6293,-6298,-6289,-6296,-6279,-6266,-6236,-6210,-6195,-6192,-6191,-6157,-6134,-6122,-6083,-6048,-6024,-6012,-6001,-6015,-6032,-6139,-6277,-6462,-6631,-6757,-6829,-6876,-6921,-6939,-6945,-6936,-6925,-6911,-6880,-6859,-6877,-6870,-6879,-6871,-6877,-6853,-6823,-6808,-6787,-6755,-6743,-6742,-6755,-6755,-6750,-6770,-6744,-6732,-6724,-6731,-6699,-6674,-6666,-6614,-6645,-6592,-6553,-6516,-6502,-6480,-6469,-6446,-6444,-6441,-6437,-6423,-6405,-6390,-6354,-6354,-6356,-6325,-6317,-6305,-6324,-6282,-6300,-6296,-6268,-6259,-6246,-6254,-6213,-6194,-6185,-6148,-6093,-6099,-6081,-6046,-6047,-6038,-6107,-6232,-6407,-6564,-6713,-6814,-6873,-6912,-6963,-6954,-6960,-6950,-6939,-6895,-6885,-6879,-6833,-6855,-6849,-6859,-6873,-6832,-6788,-6775,-6768,-6816,-6757,-6762,-6761,-6771,-6763,-6773,-6772,-6762,-6775,-6743,-6744,-6715,-6699,-6672,-6670,-6625,-6616,-6591,-6561,-6543,-6521,-6513,-6500,-6482,-6460,-6477,-6449,-6435,-6425,-6416,-6412,-6396,-6392,-6367,-6362,-6352,-6334,-6323,-6333,-6329,-6291,-6279,-6269,-6231,-6213,-6209,-6183,-6144,-6114,-6112,-6092,-6089,-6136,-6286,-6451,-6641,-6801,-6899,-6943,-7004,-7048,-7052,-7045,-7095,-7020,-7015,-7008,-6978,-7010,-7016,-6996,-7000,-7018,-7006,-7020,-6990,-6962,-6948,-6923,-6916,-6893,-6891,-6879,-6898,-6894,-6898,-6901,-6882,-6871,-6847,-6826,-6818,-6800,-6768,-6744,-6711,-6682,-6680,-6635,-6647,-6586,-6600,-6576,-6573,-6551,-6533,-6508,-6514,-6509,-6473,-6470,-6450,-6451,-6410,-6413,-6404,-6365,-6382,-6378,-6330,-6349,-6315,-6293,-6285,-6261,-6243,-6282,-6210,-6163,-6148,-6124,-6116,-6112,-6091,-6090,-6126,-6249,-6455,-6659,-6812,-6931,-7023,-7051,-7110,-7106,-7100,-7084,-7083,-7059,-7052,-7054,-7032,-7040,-7023,-7044,-7045,-7050,-7035,-7038,-6986,-6969,-6940,-6918,-6898,-6875,-6884,-6890,-6886,-6869,-6900,-6869,-6853,-6845,-6833,-6812,-6792,-6758,-6744,-6711,-6714,-6682,-6659,-6643,-6617,-6623,-6601,-6604,-6593,-6572,-6560,-6604,-6536,-6541,-6518,-6518,-6479,-6619,-6462,-6445,-6437,-6413,-6411,-6402,-6521,-6401,-6447,-6342,-6317,-6298,-6292,-6281,-6248,-6231,-6214,-6180,-6217,-6299,-6429,-6587,-6753,-6868,-6996,-7055,-7072,-7098,-7111,-7082,-7064,-7057,-7015,-7024,-7012,-7021,-6994,-7008,-7020,-7004,-6978,-6976,-6953,-6958,-6947,-6935,-6910,-6918,-6940,-6935,-6954,-6959,-6943,-6945,-6929,-6923,-6919,-6873,-6864,-6850,-6807,-6791,-6771,-6756,-6753,-6707,-6724,-6707,-6686,-6680,-6659,-6656,-6652,-6634,-6658,-6635,-6648,-6613,-6605,-6592,-6587,-6561,-6558,-6567,-6550,-6508,-6489,-6486,-6487,-6456,-6436,-6392,-6376,-6358,-6333,-6338,-6348,-6411,-6529,-6686,-6827,-6972,-7147,-7173,-7441,-7457,-7425,-7440,-7420,-7404,-7406,-7396,-7387,-7394,-7402,-7405,-7393,-7409,-7407,-7426,-7353,-7368,-7334,-7355,-7350,-7352,-7385,-7366,-7373,-7352,-7355,-7360,-7324,-7335,-7299,-7291,-7289,-7265,-7265,-7233,-7208,-7211,-7179,-7168,-7162,-7155,-7130,-7116,-7110,-7087,-7074,-7054,-7081,-7079,-7066,-7053,-7039,-7040,-7036,-7016,-7008,-6999,-7001,-6974,-6967,-6960,-6962,-6946,-6932,-6911,-6926,-6891,-6860,-6844,-6830,-6822,-6811,-6817,-6851,-6947,-7093,-7194,-7461,-7410,-7482,-7532,-7571,-7599,-7607,-7601,-7578,-7595,-7593,-7596,-7607,-7598,-7607,-7627,-7628,-7630,-7630,-7614,-7607,-7581,-7564,-7549,-7556,-7522,-7506,-7526,-7532,-7543,-7549,-7517,-7544,-7513,-7515,-7516,-7487,-7469,-7444,-7429,-7416,-7364,-7393,-7341,-7293,-7292,-7302,-7296,-7275,-7236,-7223,-7220,-7211,-7201,-7188,-7153,-7149,-7145,-7129,-7120,-7113,-7098,-7108,-7065,-7073,-7039,-7007,-6976,-6987,-6964,-6952,-6938,-6901,-6902,-6899,-6879,-6859,-6862,-6947,-7063,-7227,-7320,-7444,-7511,-7570,-7608,-7644,-7642,-7632,-7609,-7610,-7602,-7596,-7563,-7578,-7604,-7592,-7611,-7569,-7584,-7574,-7557,-7543,-7521,-7506,-7515,-7514,-7527,-7522,-7537,-7540,-7539,-7540,-7521,-7524,-7511,-7499,-7485,-7452,-7442,-7410,-7399,-7365,-7351,-7340,-7336,-7307,-7291,-7268,-7272,-7246,-7242,-7213,-7205,-7212,-7182,-7194,-7171,-7173,-7173,-7154,-7137,-7107,-7118,-7072,-7085,-7078,-7055,-7029,-7043,-7012,-7023,-6988,-6973,-6941,-6917,-6957,-7011,-7161,-7295,-7418,-7526,-7601,-7665,-7713,-7725,-7712,-7686,-7681,-7664,-7652,-7632,-7636,-7589,-7612,-7603,-7611,-7598,-7574,-7567,-7524,-7507,-7506,-7495,-7488,-7502,-7518,-7514,-7517,-7531,-7493,-7487,-7507,-7476,-7477,-7465,-7408,-7405,-7380,-7356,-7332,-7306,-7293,-7268,-7251,-7227,-7210,-7198,-7197,-7201,-7181,-7166,-7154,-7156,-7156,-7124,-7134,-7111,-7086,-7089,-7090,-7091,-7080,-7052,-7025,-7024,-7004,-6973,-6943,-6934,-6929,-6917,-6895,-6906,-6948,-7030,-7213,-7352,-7487,-7616,-7695,-7741,-7780,-7825,-7824,-7821,-7826,-7791,-7786,-7763,-7771,-7798,-7785,-7780,-7793,-7761,-7795,-7744,-7742,-7718,-7673,-7670,-7636,-7625,-7623,-7656,-7630,-7630,-7643,-7621,-7628,-7613,-7615,-7579,-7570,-7529,-7516,-7497,-7469,-7465,-7446,-7413,-7386,-7370,-7348,-7333,-7333,-7332,-7320,-7276,-7271,-7252,-7254,-7230,-7229,-7192,-7191,-7189,-7167,-7151,-7144,-7128,-7105,-7107,-7077,-7053,-7023,-7006,-6991,-6969,-6944,-6937,-6922,-6903,-6872,-6877,-6959,-7075,-7363,-7525,-7634,-7714,-7758,-7783,-7777,-7793,-7762,-7744,-7730,-7685,-7673,-7672,-7663,-7683,-7664,-7666,-7637,-7634,-7596,-7575,-7544,-7514,-7493,-7489,-7483,-7490,-7490,-7489,-7496,-7507,-7478,-7477,-7478,-7451,-7424,-7393,-7400,-7333,-7307,-7292,-7262,-7253,-7226,-7203,-7175,-7189,-7183,-7154,-7129,-7125,-7105,-7106,-7108,-7094,-7079,-7064,-7060,-7050,-7041,-7041,-7037,-7019,-6996,-7112,-7052,-7154,-7121,-7128,-7096,-7084,-6904,-6790,-6788,-6805,-6840,-6955,-7106,-7270,-7417,-7770,-7847,-7658,-7677,-7707,-7881,-7722,-7792,-7622,-7575,-7563,-7527,-7522,-7535,-7556,-7553,-7521,-7483,-7462,-7440,-7441,-7416,-7410,-7409,-7422,-7413,-7442,-7434,-7447,-7440,-7406,-7412,-7373,-7375,-7347,-7291,-7279,-7235,-7210,-7205,-7201,-7254,-7177,-7150,-7144,-7128,-7129,-7086,-7091,-7080,-7051,-7035,-7053,-7008,-7025,-7019,-7007,-7007,-6997,-6989,-6978,-6950,-6942,-6919,-6886,-6862,-6861,-6823,-6801,-6768,-6774,-6758,-6744,-6801,-6894,-7069,-7236,-7394,-7529,-7618,-7689,-7740,-7736,-7757,-7726,-7696,-7720,-7685,-7660,-7637,-7620,-7638,-7651,-7634,-7648,-7633,-7627,-7595,-7557,-7530,-7517,-7501,-7517,-7515,-7517,-7528,-7509,-7483,-7472,-7457,-7474,-7439,-7414,-7401,-7359,-7349,-7318,-7311,-7265,-7244,-7212,-7194,-7180,-7151,-7159,-7118,-7115,-7105,-7070,-7072,-7081,-7058,-7031,-7057,-7026,-7025,-7008,-6985,-6966,-6933,-6952,-6924,-6899,-6884,-6876,-6838,-6801,-6805,-6795,-6772,-6749,-6728,-6688,-6702,-6656,-6649,-6637,-6641,-6729,-6910,-7072,-7283,-7431,-7558,-7647,-7687,-7698,-7728,-7702,-7711,-7661,-7655,-7633,-7865,-7605,-7590,-7600,-7601,-7615,-7612,-7623,-7602,-7534,-7507,-7459,-7478,-7443,-7445,-7472,-7449,-7448,-7465,-7428,-7444,-7423,-7424,-7402,-7382,-7339,-7321,-7294,-7268,-7239,-7240,-7202,-7190,-7170,-7137,-7103,-7099,-7075,-7069,-7039,-7023,-7003,-7010,-6994,-6956,-6957,-6932,-6913,-6909,-6909,-6879,-6864,-6861,-6847,-6847,-6833,-6796,-6778,-6767,-6754,-6695,-6700,-6696,-6669,-6865,-6629,-6811,-6689,-6634,-6706,-6877,-7054,-7296,-7401,-7507,-7577,-7875,-7654,-7776,-7650,-7612,-7588,-7524,-7492,-7480,-7467,-7426,-7447,-7460,-7455,-7427,-7406,-7382,-7367,-7347,-7331,-7316,-7318,-7293,-7316,-7325,-7363,-7382,-7374,-7334,-7343,-7318,-7285,-7263,-7244,-7218,-7210,-7195,-7166,-7134,-7096,-7084,-7059,-7048,-7062,-7055,-7033,-7022,-7044,-7006,-7008,-6991,-6982,-6973,-6941,-6943,-6932,-6912,-6869,-6860,-6830,-6798,-6781,-6772,-6733,-6705,-6650,-6644,-6630,-6590,-6567,-6531,-6535,-6579,-6843,-7028,-7213,-7325,-7409,-7458,-7507,-7500,-7487,-7450,-7416,-7399,-7354,-7323,-7315,-7277,-7290,-7284,-7265,-7238,-7194,-7182,-7149,-7138,-7119,-7191,-7095,-7108,-7082,-7093,-7094,-7095,-7093,-7232,-7071,-7027,-7012,-6977,-6945,-6915,-6896,-6956,-6823,-6799,-6777,-6766,-6730,-6686,-6685,-6662,-6650,-6638,-6625,-6621,-6606,-6586,-6577,-6538,-6534,-6537,-6504,-6494,-6469,-6476,-6476,-6472,-6449,-6394,-6386,-6355,-6339,-6333,-6336,-6319,-6320,-6317,-6346,-6496,-6709,-6960,-7145,-7291,-7371,-7419,-7436,-7426,-7399,-7394,-7333,-7335,-7298,-7306,-7299,-7268,-7298,-7285,-7316,-7282,-7279,-7264,-7220,-7196,-7156,-7157,-7150,-7169,-7166,-7171,-7154,-7158,-7151,-7139,-7125,-7132,-7111,-7078,-7049,-7014,-6999,-6948,-6917,-6916,-6894,-6874,-6837,-6806,-6786,-6778,-6751,-6754,-6728,-6717,-6699,-6677,-6663,-6648,-6640,-6627,-6632,-6577,-6600,-6566,-6555,-6534,-6563,-6526,-6503,-6493,-6473,-6473,-6448,-6433,-6543,-6421,-6414,-6411,-6410,-6528,-6712,-6955,-7306,-7298,-7408,-7482,-7539,-7580,-7544,-7542,-7612,-7506,-7473,-7447,-7440,-7457,-7453,-7446,-7464,-7466,-7462,-7427,-7410,-7383,-7341,-7336,-7295,-7305,-7299,-7294,-7276,-7284,-7292,-7284,-7235,-7231,-7233,-7223,-7193,-7168,-7152,-7116,-7090,-7064,-7026,-7011,-6982,-6973,-6953,-6941,-6907,-6897,-6897,-6878,-6865,-6839,-6846,-6822,-6821,-6790,-6798,-6780,-6781,-6919,-6739,-6709,-6707,-6698,-6637,-6632,-6591,-6578,-6540,-6758,-6677,-6506,-6466,-6713,-6531,-6617,-6801,-7012,-7217,-7339,-7442,-7504,-7550,-7558,-7564,-7525,-7511,-7508,-7456,-7421,-7409,-7420,-7420,-7416,-7413,-7415,-7380,-7539,-7332,-7302,-7272,-7276,-7408,-7272,-7270,-7302,-7374,-7421,-7273,-7312,-7270,-7276,-7254,-7321,-7330,-7310,-7157,-7257,-7093,-7100,-7066,-7092,-7019,-7007,-6987,-7117,-6936,-6959,-6918,-6913,-6934,-6930,-6886,-6957,-6892,-6879,-6875,-6868,-6854,-6837,-6813,-6808,-6756,-6751,-6717,-6691,-6680,-6653,-6654,-6677,-6695,-6800,-6957,-7173,-7306,-7435,-7536,-7599,-7629,-7647,-7611,-7635,-7602,-7576,-7538,-7534,-7501,-7484,-7499,-7456,-7620,-7464,-7435,-7407,-7373,-7331,-7315,-7413,-7299,-7309,-7311,-7334,-7411,-7327,-7502,-7579,-7544,-7306,-7413,-7377,-7194,-7175,-7151,-7124,-7118,-7110,-7122,-7124,-7095,-7080,-7079,-7048,-7050,-7007,-7025,-7011,-6983,-6982,-6962,-6937,-6920,-6915,-6894,-6880,-6879,-6863,-6847,-6828,-6803,-6779,-6752,-6745,-6702,-6710,-6803,-6826,-6998,-7199,-7369,-7495,-7597,-7656,-7697,-7704,-7684,-7665,-7707,-7647,-7600,-7617,-7583,-7587,-7575,-7580,-7732,-7592,-7591,-7569,-7546,-7519,-7474,-7472,-7455,-7476,-7455,-7485,-7493,-7505,-7493,-7541,-7475,-7463,-7438,-7437,-7405,-7380,-7375,-7345,-7340,-7327,-7316,-7296,-7288,-7240,-7222,-7211,-7210,-7195,-7167,-7161,-7137,-7156,-7128,-7114,-7098,-7092,-7098,-7079,-7045,-7025,-7001,-6962,-6923,-6939,-6913,-6933,-7002,-7119,-7284,-7445,-7564,-7693,-7759,-7789,-7820,-7818,-7810,-7797,-7769,-7775,-7748,-7729,-7724,-7707,-7695,-7695,-7670,-7661,-7637,-7590,-7587,-7555,-7551,-7510,-7512,-7503,-7494,-7502,-7514,-7484,-7512,-7513,-7487,-7482,-7433,-7444,-7425,-7365,-7352,-7300,-7301,-7260,-7276,-7262,-7218,-7195,-7211,-7213,-7178,-7150,-7156,-7117,-7111,-7075,-7064,-7041,-7063,-7017,-7046,-6994,-6978,-6958,-6997,-6914,-6912,-6880,-6853,-6831,-6826,-6788,-6945,-6759,-6760,-6807,-6949,-7126,-7347,-7464,-7739,-7678,-7743,-7754,-7756,-7745,-7725,-7681,-7671,-7607,-7574,-7566,-7553,-7545,-7540,-7545,-7531,-7505,-7470,-7460,-7434,-7417,-7410,-7375,-7392,-7385,-7401,-7408,-7389,-7389,-7388,-7371,-7350,-7344,-7307,-7279,-7235,-7198,-7198,-7172,-7141,-7120,-7074,-7061,-7044,-7025,-7001,-7006,-6993,-6962,-6944,-6964,-6934,-6925,-6913,-6921,-6895,-6874,-6859,-6856,-6843,-6850,-6806,-6797,-6776,-6772,-6757,-6743,-6707,-6679,-6664,-6633,-6630,-6567,-6570,-6560,-6527,-6542,-6672,-6870,-7118,-7320,-7462,-7561,-7643,-7658,-7629,-7609,-7590,-7552,-7516,-7474,-7448,-7388,-7392,-7374,-7374,-7366,-7342,-7318,-7284,-7270,-7274,-7253,-7256,-7276,-7259,-7270,-7265,-7288,-7287,-7304,-7259,-7271,-7238,-7207,-7194,-7146,-7097,-7067,-7032,-6980,-6971,-6951,-6938,-6935,-6928,-6935,-6901,-6932,-6902,-6904,-6873,-6859,-6833,-6860,-6834,-6828,-6798,-6783,-6795,-6760,-6770,-6743,-6710,-6699,-6660,-6658,-6620,-6594,-6582,-6570,-6617,-6734,-6914,-7116,-7297,-7423,-7537,-7592,-7616,-7638,-7651,-7607,-7569,-7544,-7515,-7462,-7421,-7422,-7387,-7382,-7339,-7354,-7318,-7313,-7284,-7260,-7257,-7263,-7263,-7283,-7288,-7296,-7292,-7281,-7289,-7254,-7235,-7239,-7188,-7168,-7137,-7107,-7070,-7026,-6988,-6950,-6941,-6918,-6876,-6862,-6849,-6818,-6820,-6792,-6775,-6786,-6773,-6759,-6768,-6759,-6744,-6711,-6695,-6714,-6680,-6676,-6658,-6639,-6639,-6597,-6586,-6573,-6546,-6542,-6522,-6552,-6629,-6834,-7061,-7366,-7398,-7558,-7632,-7648,-7676,-7655,-7729,-7615,-7568,-7523,-7500,-7469,-7438,-7455,-7564,-7454,-7447,-7441,-7380,-7362,-7339,-7339,-7432,-7313,-7302,-7321,-7305,-7310,-7307,-7299,-7321,-7265,-7272,-7238,-7240,-7206,-7178,-7158,-7106,-7063,-7061,-7016,-6989,-6937,-6912,-6897,-6897,-6874,-6862,-6832,-6842,-6840,-6841,-6809,-6814,-6778,-6764,-6781,-6756,-6731,-6719,-6701,-6699,-6662,-6624,-6609,-6601,-6589,-6554,-6548,-6543,-6595,-6734,-6951,-7187,-7349,-7465,-7549,-7614,-7626,-7620,-7600,-7589,-7544,-7526,-7480,-7437,-7389,-7380,-7371,-7362,-7354,-7541,-7316,-7284,-7264,-7376,-7340,-7230,-7232,-7231,-7233,-7222,-7228,-7220,-7223,-7195,-7177,-7162,-7111,-7086,-7052,-7014,-6966,-6954,-6932,-6894,-6855,-6828,-6822,-6789,-6766,-6738,-6712,-6722,-6688,-6658,-6662,-6648,-6625,-6631,-6621,-6600,-6568,-6567,-6543,-6548,-6517,-6510,-6508,-6480,-6489,-6443,-6414,-6398,-6381,-6351,-6341,-6337,-6387,-6475,-6665,-6933,-7122,-7292,-7391,-7450,-7463,-7449,-7432,-7384,-7339,-7298,-7253,-7194,-7142,-7125,-7099,-7088,-7090,-7047,-7039,-7016,-6993,-6987,-6987,-7025,-7009,-6995,-7004,-7010,-7003,-7034,-7014,-6998,-6944,-6928,-6903,-6865,-6852,-6796,-6774,-6741,-6707,-6677,-6650,-6642,-6607,-6588,-6550,-6537,-6524,-6522,-6494,-6507,-6493,-6469,-6479,-6486,-6474,-6463,-6442,-6436,-6416,-6395,-6386,-6360,-6341,-6341,-6339,-6287,-6272,-6287,-6334,-6449,-6633,-6897,-7057,-7201,-7276,-7311,-7356,-7344,-7322,-7297,-7258,-7200,-7142,-7115,-7067,-7025,-7021,-6968,-6953,-6926,-6898,-6908,-6885,-6898,-6895,-6914,-6937,-6934,-6936,-6947,-6933,-6921,-6897,-6903,-6866,-6840,-6787,-6746,-6728,-6688,-6653,-6616,-6577,-6543,-6525,-6517,-6501,-6479,-6466,-6458,-6430,-6453,-6430,-6415,-6401,-6393,-6390,-6372,-6384,-6379,-6368,-6352,-6340,-6326,-6303,-6278,-6278,-6282,-6245,-6229,-6239,-6306,-6382,-6565,-6810,-7010,-7185,-7303,-7333,-7351,-7341,-7354,-7318,-7268,-7238,-7180,-7157,-7135,-7124,-7117,-7129,-7121,-7109,-7090,-7054,-7040,-7021,-7025,-7005,-6980,-6997,-6992,-6999,-6979,-7002,-6996,-6983,-6954,-6964,-6922,-6887,-6835,-6818,-6787,-6752,-6723,-6686,-6671,-6613,-6627,-6596,-6577,-6568,-6567,-6517,-6518,-6511,-6516,-6486,-6481,-6472,-6470,-6475,-6486,-6439,-6438,-6429,-6395,-6384,-6381,-6340,-6339,-6336,-6337,-6332,-6385,-6521,-6738,-6975,-7143,-7256,-7317,-7372,-7393,-7370,-7355,-7323,-7270,-7240,-7173,-7171,-7169,-7142,-7134,-7142,-7114,-7075,-7073,-7023,-7016,-7006,-6991,-6988,-6998,-6985,-7009,-7014,-7009,-6989,-6981,-6941,-6919,-6887,-6893,-6864,-6816,-6783,-6747,-6735,-6698,-6678,-6659,-6620,-6593,-6599,-6563,-6549,-6548,-6539,-6527,-6510,-6489,-6494,-6475,-6470,-6454,-6444,-6450,-6412,-6404,-6395,-6368,-6344,-6331,-6297,-6289,-6270,-6285,-6276,-6319,-6426,-7070,-6997,-7162,-7248,-7281,-7318,-7288,-7292,-7250,-7205,-7152,-7114,-7071,-7050,-7033,-7018,-7024,-6995,-6956,-6939,-6905,-6902,-6880,-6877,-6906,-6920,-6909,-6906,-6928,-6931,-6928,-6893,-6892,-6862,-6812,-6791,-6735,-6732,-6694,-6688,-6647,-6613,-6593,-6565,-6555,-6533,-6519,-6502,-6477,-6459,-6478,-6477,-6451,-6444,-6461,-6440,-6439,-6433,-6479,-6426,-6394,-6401,-6361,-6339,-6320,-6305,-6433,-6263,-6256,-6271,-6303,-6393,-6523,-6740,-7105,-7090,-7202,-7271,-7277,-7283,-7261,-7223,-7265,-7179,-7133,-7093,-7043,-7061,-7035,-7050,-7030,-6991,-6954,-6918,-6917,-6894,-6903,-6901,-6932,-6915,-6928,-6928,-6936,-6913,-6890,-6888,-6857,-6833,-6828,-6784,-6767,-6708,-6692,-6671,-6608,-6606,-6601,-6551,-6546,-6521,-6517,-6543,-6494,-6501,-6451,-6487,-6449,-6472,-6463,-6431,-6432,-6433,-6427,-6400,-6392,-6398,-6391,-6357,-6317,-6320,-6307,-6299,-6296,-6327,-6403,-6523,-6696,-6924,-7100,-7222,-7328,-7369,-7394,-7397,-7377,-7366,-7319,-7297,-7280,-7248,-7258,-7254,-7269,-7256,-7255,-7231,-7221,-7184,-7155,-7138,-7091,-7080,-7091,-7076,-7077,-7085,-7060,-7062,-7068,-7023,-7029,-7002,-6975,-6939,-6934,-6956,-6876,-6824,-6817,-6783,-6758,-6720,-6699,-6846,-6666,-6664,-6630,-6623,-6613,-6618,-6573,-6770,-6563,-6568,-6538,-6553,-6536,-6525,-6527,-6570,-6493,-6457,-6453,-6425,-6401,-6396,-6380,-6362,-6381,-6358,-6409,-6492,-6644,-6866,-7060,-7232,-7326,-7391,-7411,-7399,-7379,-7380,-7357,-7344,-7293,-7278,-7276,-7269,-7257,-7243,-7252,-7237,-7206,-7198,-7174,-7139,-7133,-7121,-7129,-7118,-7110,-7085,-7103,-7110,-7082,-7078,-7062,-7030,-7021,-6986,-6962,-6932,-6900,-6879,-6831,-6806,-6797,-6768,-6737,-6733,-6706,-6679,-6692,-6667,-6645,-6635,-6634,-6623,-6579,-6603,-6579,-6563,-6559,-6567,-6521,-6517,-6518,-6475,-6439,-6406,-6395,-6378,-6374,-6343,-6328,-6337,-6331,-6388,-6470,-6656,-6883,-7065,-7209,-7271,-7324,-7326,-7340,-7308,-7320,-7301,-7253,-7213,-7284,-7179,-7141,-7136,-7142,-7115,-7080,-7075,-7034,-7014,-6996,-7008,-6965,-6996,-7003,-6982,-6986,-6991,-6996,-6972,-6954,-6946,-6929,-6921,-6882,-6870,-6834,-6809,-6754,-6739,-6732,-6684,-6657,-6642,-6613,-6584,-6555,-6560,-6546,-6537,-6525,-6507,-6503,-6510,-6500,-6481,-6473,-6463,-6438,-6436,-6436,-6416,-6389,-6356,-6353,-6339,-6333,-6322,-6307,-6321,-6320,-6361,-6488,-6756,-6917,-7055,-7185,-7258,-7299,-7304,-7306,-7292,-7254,-7217,-7189,-7154,-7132,-7107,-7098,-7094,-7069,-7084,-7061,-7006,-6988,-6977,-6965,-6974,-6974,-6962,-6971,-7004,-6968,-6963,-6972,-6966,-6945,-6944,-6865,-6829,-6816,-6793,-6757,-6707,-6664,-6651,-6641,-6616,-6622,-6579,-6580,-6565,-6552,-6551,-6531,-6520,-6520,-6499,-6494,-6487,-6474,-6468,-6456,-6452,-6432,-6424,-6506,-6375,-6393,-6372,-6349,-6355,-6329,-6310,-6339,-6367,-6443,-6652,-6872,-7064,-7185,-7294,-7369,-7372,-7386,-7400,-7372,-7339,-7303,-7293,-7268,-7258,-7242,-7261,-7244,-7249,-7239,-7239,-7213,-7157,-7145,-7134,-7096,-7105,-7080,-7101,-7073,-7070,-7076,-7080,-7055,-7034,-7014,-6998,-6953,-6937,-6883,-6862,-6818,-6819,-6756,-6747,-6721,-6676,-6685,-6659,-6651,-6630,-6622,-6587,-6596,-6583,-6564,-6558,-6559,-6602,-6518,-6522,-6520,-6487,-6510,-6474,-6476,-6437,-6427,-6407,-6367,-6384,-6365,-6346,-6352,-6358,-6415,-6522,-6703,-6913,-7101,-7224,-7308,-7393,-7401,-7391,-7390,-7351,-7328,-7300,-7245,-7231,-7220,-7221,-7224,-7234,-7185,-7175,-7158,-7139,-7099,-7079,-7072,-7045,-7065,-7043,-7048,-7056,-7065,-7045,-7033,-7033,-6992,-6998,-6946,-6933,-6908,-7000,-6824,-6806,-6795,-6757,-6732,-6725,-6688,-6819,-6643,-6624,-6603,-6608,-6588,-6557,-6563,-6638,-6530,-6555,-6538,-6517,-6529,-6521,-6505,-6486,-6471,-6457,-6434,-6437,-6421,-6395,-6380,-6353,-6338,-6350,-6327,-6335,-6379,-6490,-6665,-6878,-7048,-7187,-7276,-7314,-7326,-7300,-7284,-7260,-7220,-7179,-7156,-7098,-7083,-7101,-7071,-7075,-7061,-7021,-6990,-6965,-6942,-6926,-7099,-6931,-6930,-6927,-6927,-6917,-6905,-6906,-6908,-6848,-6844,-6818,-6774,-6742,-6727,-6695,-6661,-6632,-6602,-6585,-6554,-6570,-6555,-6510,-6491,-6506,-6478,-6481,-6463,-6457,-6447,-6434,-6429,-6405,-6400,-6405,-6366,-6367,-6351,-6345,-6347,-6315,-6287,-6269,-6279,-6267,-6261,-6254,-6232,-6222,-6263,-6327,-6467,-6623,-6847,-7022,-7107,-7192,-7242,-7235,-7222,-7186,-7158,-7102,-7175,-7034,-7013,-6979,-6954,-6936,-6925,-6895,-6997,-6859,-6840,-6805,-6831,-6829,-6840,-6868,-6938,-6881,-6863,-6874,-6846,-6829,-6808,-6777,-6770,-6731,-6706,-6649,-6631,-6618,-6568,-6554,-6554,-6544,-6508,-6488,-6452,-6456,-6470,-6458,-6438,-6441,-6430,-6423,-6425,-6409,-6408,-6395,-6371,-6355,-6344,-6337,-6319,-6326,-6307,-6288,-6260,-6261,-6272,-6296,-6359,-6479,-6685,-7054,-7085,-7200,-7260,-7280,-7267,-7294,-7245,-7225,-7195,-7139,-7131,-7092,-7090,-7076,-7085,-7091,-7074,-7041,-7000,-6978,-6954,-6927,-6934,-6946,-6949,-6935,-6940,-6928,-6920,-6926,-6898,-6878,-6851,-6820,-6795,-6777,-6731,-6696,-6681,-6646,-6632,-6596,-6572,-6546,-6560,-6529,-6517,-6532,-6515,-6507,-6504,-6484,-6479,-6470,-6456,-6460,-6441,-6461,-6430,-6438,-6416,-6380,-6521,-6355,-6342,-6328,-6307,-6337,-6368,-6408,-6713,-6784,-6992,-7148,-7271,-7348,-7392,-7405,-7469,-7405,-7409,-7386,-7354,-7322,-7303,-7320,-7323,-7318,-7315,-7308,-7284,-7255,-7208,-7146,-7120,-7106,-7115,-7091,-7105,-7101,-7102,-7114,-7108,-7079,-7069,-7061,-7059,-7038,-7026,-6976,-6947,-6893,-6870,-6847,-6823,-6811,-6784,-6766,-6728,-6709,-6698,-6695,-6692,-6668,-6640,-6807,-6629,-6609,-6614,-6564,-6593,-6554,-6573,-6569,-6538,-6526,-6543,-6488,-6490,-6460,-6451,-6438,-6415,-6404,-6395,-6415,-6444,-6516,-6686,-6918,-7116,-7254,-7361,-7445,-7495,-7478,-7508,-7481,-7451,-7455,-7426,-7415,-7386,-7416,-7411,-7423,-7424,-7406,-7377,-7339,-7314,-7252,-7224,-7197,-7198,-7201,-7198,-7201,-7203,-7195,-7203,-7187,-7159,-7148,-7145,-7112,-7065,-7041,-7002,-6976,-6952,-6930,-6910,-6869,-6873,-6824,-6812,-6801,-6779,-6762,-6743,-6749,-6722,-6696,-6711,-6683,-6683,-6665,-6656,-6635,-6639,-6632,-6604,-6585,-6543,-6538,-6542,-6523,-6497,-6484,-6458,-6453,-6439,-6405,-6409,-6390,-6385,-6389,-6450,-6596,-6766,-6969,-7176,-7296,-7388,-7436,-7474,-7452,-7424,-7420,-7390,-7364,-7357,-7353,-7336,-7316,-7326,-7333,-7340,-7297,-7250,-7240,-7196,-7202,-7157,-7154,-7148,-7129,-7100,-7129,-7136,-7127,-7120,-7094,-7090,-7054,-7031,-7005,-6988,-6966,-6910,-6869,-6848,-6828,-6773,-6771,-6743,-6739,-6705,-6697,-6682,-6671,-6651,-6652,-6628,-6617,-6602,-6611,-6601,-6584,-6580,-6544,-6553,-6546,-6520,-6505,-6479,-6463,-6458,-6426,-6407,-6393,-6382,-6368,-6350,-6323,-6367,-6434,-6532,-6704,-6936,-7096,-7247,-7323,-7379,-7397,-7385,-7377,-7337,-7317,-7266,-7250,-7225,-7196,-7196,-7178,-7188,-7157,-7135,-7118,-7086,-7077,-7057,-7086,-7084,-7076,-7081,-7099,-7099,-7081,-7072,-7063,-7044,-7012,-7002,-6978,-6945,-6892,-6853,-6818,-6801,-6784,-6765,-6712,-6732,-6723,-6674,-6686,-6657,-6655,-6625,-6622,-6595,-6620,-6605,-6605,-6596,-6572,-6584,-6540,-6563,-6532,-6502,-6520,-6493,-6455,-6440,-6440,-6418,-6420,-6420,-6402,-6426,-6539,-6718,-6939,-7156,-7305,-7420,-7460,-7504,-7516,-7532,-7481,-7473,-7462,-7429,-7396,-7415,-7412,-7392,-7411,-7421,-7401,-7381,-7368,-7347,-7316,-7284,-7280,-7256,-7247,-7254,-7261,-7241,-7263,-7252,-7243,-7237,-7211,-7186,-7153,-7137,-7103,-7093,-7028,-7018,-6998,-6958,-6949,-6913,-6890,-6878,-6868,-6852,-6842,-6814,-6814,-6807,-6776,-6763,-6762,-6758,-6728,-6739,-6719,-6710,-6683,-6688,-6675,-6633,-6620,-6599,-6580,-6547,-6544,-6520,-6524,-6504,-6518,-6538,-6589,-6747,-6969,-7195,-7349,-7485,-7547,-7602,-7628,-7633,-7590,-7596,-7582,-7569,-7554,-7551,-7531,-7543,-7544,-7546,-7533,-7524,-7473,-7462,-7418,-7393,-7387,-7374,-7369,-7386,-7388,-7375,-7357,-7369,-7344,-7340,-7321,-7277,-7276,-7254,-7222,-7173,-7127,-7111,-7110,-7072,-7054,-7038,-7007,-7005,-6976,-6953,-6941,-6888,-6923,-6903,-6863,-6854,-6843,-6839,-6829,-6807,-6799,-6774,-6751,-6722,-6694,-6710,-6675,-6669,-6651,-6614,-6613,-6585,-6564,-6532,-6531,-6520,-6514,-6529,-6587,-6708,-6944,-7178,-7337,-7459,-7529,-7586,-7606,-7593,-7592,-7543,-7517,-7509,-7469,-7459,-7458,-7438,-7463,-7462,-7461,-7432,-7416,-7372,-7359,-7304,-7290,-7264,-7281,-7292,-7283,-7264,-7264,-7259,-7275,-7290,-7263,-7203,-7178,-7185,-7138,-7109,-7081,-7056,-7027,-7012,-6985,-6976,-6975,-6922,-6909,-6888,-6865,-6858,-6826,-6809,-6807,-6795,-6780,-6762,-6764,-6739,-6744,-6704,-6706,-6687,-6679,-6662,-6658,-6623,-6600,-6585,-6555,-6545,-6547,-6524,-6494,-6508,-6463,-6496,-6536,-6654,-6858,-7086,-7255,-7403,-7484,-7518,-7516,-7521,-7518,-7495,-7437,-7424,-7358,-7342,-7344,-7320,-7334,-7298,-7293,-7291,-7259,-7222,-7209,-7196,-7200,-7214,-7203,-7213,-7203,-7197,-7224,-7213,-7179,-7181,-7147,-7135,-7103,-7067,-7027,-6990,-6971,-6950,-6914,-6899,-6864,-6852,-6854,-6828,-6820,-6810,-6776,-6798,-6772,-6770,-6737,-6751,-6724,-6718,-6714,-6699,-6704,-6721,-6696,-6700,-6666,-6656,-6608,-6589,-6610,-6596,-6548,-6552,-6525,-6536,-6520,-6566,-6661,-6788,-7036,-7247,-7400,-7528,-7578,-7623,-7655,-7635,-7642,-7616,-7598,-7545,-7541,-7505,-7501,-7544,-7517,-7540,-7534,-7512,-7495,-7455,-7430,-7443,-7407,-7381,-7373,-7399,-7369,-7403,-7386,-7365,-7350,-7342,-7317,-7312,-7296,-7268,-7233,-7178,-7173,-7132,-7086,-7085,-7049,-7034,-7025,-6972,-6988,-6976,-6961,-6944,-6926,-6917,-6896,-6899,-6880,-6853,-6889,-6849,-6835,-6842,-6823,-6790,-6792,-6785,-6738,-6714,-6699,-6689,-6657,-6668,-6630,-6632,-6612,-6644,-6645,-6756,-6956,-7166,-7364,-7503,-7592,-7640,-7665,-7686,-7664,-7635,-7607,-7570,-7568,-7539,-7504,-7517,-7494,-7526,-7513,-7489,-7462,-7430,-7394,-7384,-7349,-7320,-7325,-7320,-7324,-7327,-7339,-7324,-7284,-7290,-7273,-7245,-7245,-7208,-7175,-7121,-7103,-7060,-7015,-6985,-6982,-6946,-6919,-6887,-6900,-6859,-6863,-6822,-6835,-6826,-6782,-6761,-6778,-6780,-6773,-6758,-6762,-6750,-6718,-6693,-6699,-6680,-6662,-6624,-6622,-6607,-6562,-6563,-6545,-6548,-6517,-6555,-6591,-6723,-6881,-7125,-7285,-7401,-7500,-7551,-7568,-7557,-7544,-7504,-7472,-7444,-7395,-7367,-7340,-7341,-7305,-7298,-7286,-7257,-7225,-7191,-7163,-7177,-7170,-7161,-7186,-7199,-7188,-7198,-7193,-7168,-7164,-7176,-7119,-7095,-7048,-7050,-6995,-6985,-6940,-6917,-6890,-6883,-6861,-6833,-6832,-6816,-6805,-6785,-6787,-6781,-6769,-6750,-6748,-6737,-6744,-6719,-6718,-6711,-6671,-6675,-6652,-6643,-6610,-6612,-6594,-6592,-6547,-6544,-6562,-6613,-6698,-6862,-7108,-7294,-7440,-7532,-7574,-7619,-7633,-7622,-7581,-7569,-7529,-7497,-7486,-7474,-7472,-7461,-7466,-7464,-7455,-7389,-7374,-7363,-7328,-7323,-7275,-7272,-7255,-7278,-7274,-7284,-7281,-7253,-7244,-7225,-7197,-7169,-7139,-7108,-7079,-7048,-7021,-6986,-6963,-6937,-6946,-6890,-6862,-6884,-6868,-6845,-6794,-6797,-6792,-6782,-6769,-6760,-6745,-6731,-6725,-6728,-6710,-6681,-6669,-6646,-6650,-6642,-6627,-6598,-6596,-6581,-6585,-6570,-6545,-6554,-6578,-6636,-6776,-6983,-7242,-7407,-7499,-7588,-7639,-7661,-7629,-7634,-7605,-7545,-7523,-7526,-7504,-7502,-7501,-7495,-7508,-7507,-7490,-7448,-7414,-7395,-7369,-7324,-7323,-7318,-7311,-7296,-7275,-7315,-7304,-7269,-7265,-7242,-7213,-7211,-7182,-7145,-7104,-7081,-7054,-7025,-6991,-6955,-6937,-6921,-6911,-6890,-6875,-6852,-6826,-6803,-6804,-6804,-6782,-6758,-6762,-6750,-6750,-6713,-6724,-6708,-6704,-6666,-6657,-6635,-6607,-6616,-6559,-6565,-6551,-6549,-6542,-6584,-6666,-6799,-7039,-7229,-7365,-7469,-7522,-7568,-7547,-7570,-7541,-7504,-7485,-7452,-7456,-7418,-7396,-7402,-7382,-7409,-7375,-7357,-7314,-7279,-7281,-7237,-7256,-7259,-7267,-7270,-7286,-7276,-7284,-7261,-7257,-7233,-7211,-7180,-7152,-7115,-7079,-7066,-7032,-7017,-6996,-6965,-6942,-6918,-6913,-6880,-6868,-6864,-6843,-6837,-6862,-6831,-6819,-6810,-6809,-6800,-6773,-6757,-6754,-6749,-6720,-6712,-6698,-6671,-6680,-6638,-6658,-6635,-6618,-6620,-6726,-6851,-7077,-7261,-7422,-7537,-7597,-7620,-7619,-7593,-7591,-7592,-7564,-7523,-7499,-7488,-7483,-7491,-7509,-7502,-7451,-7443,-7407,-7387,-7367,-7338,-7334,-7322,-7331,-7351,-7333,-7327,-7341,-7318,-7323,-7303,-7292,-7286,-7248,-7240,-7181,-7170,-7121,-7112,-7076,-7067,-7042,-7004,-6997,-6956,-6963,-6937,-6920,-6935,-6914,-6888,-6883,-6868,-6868,-6863,-6846,-6838,-6836,-6810,-6804,-6779,-6798,-6769,-6765,-6726,-6721,-6723,-6689,-6713,-6697,-6772,-6882,-7088,-7302,-7442,-7576,-7676,-7714,-7768,-7763,-7742,-7719,-7720,-7696,-7659,-7675,-7665,-7706,-7692,-7689,-7705,-7690,-7680,-7628,-7612,-7541,-7535,-7510,-7519,-7510,-7475,-7510,-7490,-7480,-7498,-7462,-7459,-7417,-7425,-7369,-7312,-7306,-7278,-7229,-7195,-7185,-7146,-7135,-7099,-7072,-7054,-7029,-7024,-7003,-6981,-6931,-6909,-6886,-6879,-6874,-6878,-6830,-6849,-6825,-6814,-6787,-6769,-6744,-6742,-6744,-6729,-6675,-6671,-6635,-6636,-6625,-6634,-6670,-6745,-6873,-7130,-7319,-7481,-7591,-7664,-7664,-7677,-7672,-7646,-7619,-7592,-7563,-7550,-7534,-7529,-7535,-7506,-7516,-7488,-7441,-7424,-7386,-7346,-7330,-7306,-7323,-7310,-7336,-7332,-7327,-7343,-7320,-7310,-7267,-7274,-7251,-7202,-7183,-7154,-7099,-7071,-7047,-7284,-7006,-7227,-7038,-7186,-6944,-7052,-6907,-7138,-6860,-6872,-6855,-6837,-6820,-6871,-7010,-7028,-7047,-6873,-7049,-6787,-6787,-6744,-6737,-6709,-6844,-6826,-6795,-6657,-6618,-6690,-6647,-6707,-6812,-7073,-7184,-7374,-7487,-7790,-7754,-7609,-7612,-7618,-7594,-7550,-7511,-7634,-7479,-7480,-7468,-7434,-7460,-7436,-7396,-7405,-7329,-7327,-7324,-7295,-7284,-7289,-7301,-7306,-7301,-7293,-7302,-7316,-7285,-7272,-7237,-7220,-7180,-7121,-7089,-7070,-7034,-7018,-6987,-6960,-6954,-6951,-6918,-6916,-6884,-6881,-6859,-6838,-6843,-6799,-6804,-6810,-6817,-6800,-6791,-6777,-6764,-6740,-6741,-6725,-6689,-6678,-6651,-6658,-6636,-6626,-6621,-6616,-6608,-6593,-6579,-6601,-6699,-6854,-7071,-7299,-7443,-7580,-7629,-7648,-7666,-7681,-7644,-7626,-7614,-7590,-7567,-7565,-7577,-7589,-7609,-7584,-7572,-7564,-7519,-7498,-7466,-7467,-7404,-7387,-7394,-7384,-7388,-7396,-7383,-7357,-7372,-7356,-7318,-7314,-7289,-7259,-7234,-7215,-7173,-7136,-7119,-7072,-7174,-7037,-7003,-6988,-6956,-6955,-6946,-6923,-7100,-6888,-6888,-6849,-6857,-6829,-6818,-6791,-6782,-6778,-6781,-6758,-6767,-6745,-6719,-6726,-6719,-6692,-6676,-6686,-6665,-6625,-6624,-6607,-6607,-6583,-6567,-6562,-6592,-6614,-6768,-6914,-7266,-7358,-7464,-7817,-7618,-7737,-7635,-7621,-7591,-7559,-7527,-7518,-7490,-7482,-7480,-7466,-7463,-7448,-7454,-7392,-7362,-7330,-7299,-7267,-7253,-7226,-7219,-7224,-7216,-7231,-7216,-7336,-7173,-7152,-7141,-7091,-7053,-7015,-6994,-6956,-6932,-6877,-6860,-6872,-6849,-6822,-6797,-6779,-6741,-6739,-6715,-6726,-6708,-6680,-6693,-6696,-6683,-6806,-6673,-6649,-6644,-6625,-6605,-6606,-6598,-6579,-6574,-6574,-6553,-6543,-6518,-6508,-6481,-6476,-6480,-6465,-6444,-6457,-6516,-6594,-6743,-6936,-7154,-7330,-7355,-7430,-7465,-7466,-7454,-7423,-7364,-7337,-7301,-7240,-7236,-7378,-7204,-7212,-7185,-7160,-7106,-7081,-7066,-7043,-7052,-7029,-7042,-7030,-7045,-7055,-7020,-7038,-7011,-6976,-6968,-6942,-6942,-6896,-6874,-6853,-6814,-6782,-6768,-6751,-6718,-6704,-6671,-6667,-6661,-6660,-6640,-6612,-6639,-6627,-6605,-6606,-6597,-6595,-6582,-6585,-6600,-6574,-6576,-6555,-6542,-6508,-6507,-6477,-6461,-6476,-6460,-6447,-6416,-6431,-6457,-6579,-6686,-6887,-7123,-7260,-7360,-7436,-7453,-7453,-7435,-7419,-7387,-7343,-7328,-7294,-7254,-7254,-7262,-7262,-7266,-7222,-7205,-7168,-7141,-7121,-7112,-7111,-7098,-7086,-7092,-7085,-7055,-7059,-7050,-7033,-7002,-7005,-6959,-6955,-6919,-6878,-6888,-6859,-6834,-6809,-6775,-6754,-6748,-6741,-6714,-6699,-6683,-6674,-6665,-6654,-6646,-6635,-6632,-6689,-6614,-6616,-6601,-6597,-6564,-6554,-6565,-6693,-6533,-6506,-6509,-6479,-6459,-6476,-6457,-6419,-6453,-6482,-6579,-6718,-6897,-7126,-7273,-7371,-7434,-7457,-7487,-7467,-7419,-7426,-7358,-7365,-7316,-7290,-7276,-7310,-7285,-7286,-7264,-7238,-7226,-7157,-7133,-7107,-7100,-7092,-7072,-7074,-7058,-7073,-7053,-7044,-7039,-7005,-6972,-6941,-6913,-6881,-6840,-6813,-6807,-6755,-6794,-6735,-6707,-6922,-6665,-6664,-6612,-6637,-6573,-6593,-6599,-6581,-6569,-6552,-6540,-6549,-6545,-6550,-6542,-6539,-6506,-6513,-6490,-6457,-6461,-6445,-6440,-6401,-6423,-6397,-6386,-6376,-6381,-6374,-6406,-6542,-6677,-6866,-7078,-7210,-7272,-7332,-7333,-7331,-7303,-7276,-7225,-7209,-7143,-7102,-7084,-7073,-7070,-7061,-7029,-7015,-7003,-6940,-6946,-6897,-6921,-6917,-6905,-6898,-6902,-6904,-6937,-6886,-6898,-6886,-6888,-6853,-6987,-6797,-6756,-6745,-6719,-6689,-6653,-6642,-6764,-6607,-6594,-6580,-6567,-6567,-6552,-6553,-6605,-6527,-6530,-6533,-6527,-6535,-6520,-6503,-6504,-6495,-6490,-6493,-6494,-6484,-6461,-6448,-6445,-6444,-6436,-6401,-6409,-6417,-6461,-6543,-6671,-6849,-7028,-7187,-7285,-7329,-7371,-7364,-7386,-7349,-7297,-7268,-7225,-7182,-7153,-7148,-7123,-7136,-7115,-7097,-7052,-7013,-6997,-6967,-6964,-6973,-6971,-6970,-6943,-6961,-6934,-6914,-6942,-6914,-6889,-6868,-6856,-6821,-6798,-6775,-6765,-6746,-6717,-6712,-6700,-6667,-6647,-6635,-6619,-6618,-6633,-6611,-6596,-6579,-6586,-6571,-6556,-6563,-6544,-6546,-6550,-6533,-6532,-6525,-6516,-6493,-6496,-6476,-6460,-6445,-6443,-6439,-6414,-6403,-6413,-6411,-6408,-6455,-6593,-6761,-6932,-7133,-7251,-7350,-7396,-7413,-7404,-7630,-7365,-7343,-7313,-7287,-7278,-7282,-7265,-7422,-7251,-7271,-7238,-7209,-7183,-7132,-7093,-7138,-7069,-7056,-7064,-7038,-7039,-7043,-7024,-7029,-7005,-6999,-6965,-6943,-6912,-6881,-6886,-6858,-6805,-6783,-6781,-6758,-6748,-6715,-6710,-6696,-6654,-6644,-6644,-6641,-6634,-6614,-6593,-6594,-6612,-6576,-6561,-6538,-6542,-6524,-6501,-6506,-6497,-6471,-6471,-6444,-6436,-6610,-6426,-6439,-6401,-6403,-6412,-6444,-6527,-6650,-6825,-7013,-7195,-7286,-7308,-7344,-7333,-7317,-7274,-7250,-7231,-7176,-7140,-7146,-7135,-7139,-7126,-7128,-7091,-7063,-7026,-6984,-6967,-6951,-6926,-6930,-6942,-6894,-6940,-6913,-6902,-6903,-6874,-6855,-6857,-6828,-6794,-6760,-6735,-6708,-6679,-6674,-6652,-6634,-6617,-6608,-6614,-6590,-6598,-6577,-6580,-6566,-6556,-6545,-6553,-6759,-6516,-6588,-6537,-6566,-6475,-6497,-6457,-6621,-6475,-6446,-6436,-6422,-6421,-6422,-6394,-6386,-6377,-6381,-6387,-6411,-6433,-6521,-6664,-6952,-7149,-7305,-7401,-7284,-7293,-7284,-7256,-7226,-7197,-7154,-7112,-7104,-7091,-7077,-7081,-7077,-7091,-7047,-7042,-7024,-7018,-7002,-7011,-7006,-7014,-7024,-6997,-7021,-7023,-7030,-7007,-6999,-7010,-6998,-6984,-6958,-6940,-6932,-6926,-6892,-6871,-6835,-6854,-6841,-6841,-6842,-6836,-6798,-6804,-6796,-6802,-6807,-6781,-6760,-6770,-6766,-6755,-6767,-6771,-6749,-6743,-6717,-6705,-6707,-6668,-6651,-6667,-6640,-6639,-6641,-6656,-6701,-6807,-6985,-7175,-7292,-7423,-7514,-7552,-7571,-7553,-7538,-7534,-7505,-7469,-7442,-7415,-7392,-7379,-7383,-7388,-7385,-7377,-7321,-7349,-7307,-7296,-7274,-7261,-7269,-7261,-7286,-7453,-7266,-7252,-7256,-7248,-7210,-7205,-7178,-7160,-7138,-7112,-7080,-7063,-7050,-7031,-7007,-6995,-6950,-6942,-6965,-6895,-6910,-6879,-6879,-6873,-6888,-6858,-6853,-6864,-6860,-6833,-6819,-6886,-6810,-6812,-6780,-6772,-6772,-6734,-6733,-6734,-6733,-6708,-6695,-6733,-6812,-6930,-7136,-7324,-7438,-7531,-7590,-7608,-7642,-7641,-7645,-7615,-7587,-7563,-7530,-7521,-7501,-7506,-7521,-7526,-7527,-7504,-7479,-7445,-7398,-7383,-7365,-7371,-7363,-7385,-7374,-7352,-7368,-7348,-7342,-7338,-7324,-7300,-7297,-7262,-7241,-7219,-7183,-7171,-7145,-7119,-7102,-7093,-7060,-7048,-7021,-7030,-7016,-6998,-6979,-6986,-6983,-6943,-6941,-6931,-6916,-6912,-6879,-6875,-6867,-6852,-6839,-6803,-6805,-6796,-6753,-6743,-6751,-6723,-6798,-6763,-6827,-6906,-7083,-7255,-7401,-7505,-7674,-7611,-7605,-7676,-7593,-7582,-7547,-7512,-7651,-7471,-7487,-7441,-7478,-7483,-7452,-7416,-7463,-7365,-7338,-7310,-7299,-7308,-7308,-7312,-7310,-7327,-7316,-7299,-7281,-7256,-7264,-7247,-7215,-7189,-7201,-7162,-7143,-7121,-7117,-7091,-7091,-7070,-7052,-7052,-7037,-7032,-7015,-6989,-6996,-7014,-6986,-6992,-6957,-6958,-6958,-6935,-6908,-6899,-6880,-6874,-6841,-6849,-6812,-6798,-6799,-6763,-6752,-6776,-6812,-6903,-7092,-7269,-7411,-7515,-7592,-7644,-7651,-7661,-7639,-7633,-7619,-7595,-7559,-7558,-7530,-7527,-7540,-7529,-7503,-7476,-7453,-7445,-7423,-7395,-7390,-7394,-7389,-7399,-7412,-7416,-7397,-7406,-7375,-7385,-7353,-7330,-7322,-7282,-7269,-7239,-7234,-7188,-7167,-7154,-7130,-7115,-7100,-7086,-7072,-7060,-7050,-7046,-7023,-7039,-7036,-7013,-7126,-6981,-7018,-6992,-6998,-6978,-6981,-6944,-7078,-6879,-6883,-6866,-6893,-6866,-6855,-6839,-6931,-6881,-6995,-7152,-7338,-7509,-7594,-7687,-7751,-7770,-7776,-7755,-7735,-7719,-7705,-7683,-7700,-7710,-7708,-7717,-7710,-7697,-7684,-7670,-7628,-7583,-7554,-7507,-7501,-7514,-7503,-7492,-7515,-7505,-7506,-7510,-7513,-7489,-7475,-7458,-7452,-7410,-7372,-7386,-7363,-7314,-7312,-7403,-7273,-7242,-7237,-7221,-7205,-7205,-7200,-7189,-7151,-7150,-7131,-7115,-7088,-7094,-7100,-7079,-7075,-7056,-7049,-7030,-7026,-7007,-6989,-6959,-6969,-6957,-6941,-6916,-6926,-6912,-6932,-6993,-7114,-7277,-7472,-7632,-7756,-7827,-7883,-7892,-7902,-7915,-7889,-7887,-7862,-7851,-7835,-7858,-7828,-7852,-7845,-7850,-7829,-7799,-7760,-7741,-7707,-7673,-7673,-7651,-7646,-7641,-7636,-7795,-7650,-7652,-7626,-7597,-7577,-7571,-7547,-7684,-7484,-7457,-7419,-7383,-7377,-7368,-7343,-7419,-7322,-7262,-7262,-7259,-7235,-7215,-7202,-7189,-7178,-7175,-7158,-7145,-7149,-7122,-7098,-7100,-7085,-7083,-7063,-7014,-7003,-6987,-6975,-6958,-6939,-6936,-6931,-6908,-6894,-6903,-6948,-7070,-7244,-7432,-7586,-7710,-7786,-7841,-7845,-7840,-7855,-7828,-7824,-7786,-7779,-7756,-7852,-7749,-7761,-7995,-7721,-7714,-7682,-7662,-7618,-7582,-7587,-7550,-7552,-7552,-7549,-7572,-7573,-7553,-7534,-7539,-7543,-7507,-7482,-7452,-7422,-7391,-7396,-7339,-7306,-7287,-7258,-7247,-7230,-7210,-7197,-7184,-7172,-7177,-7160,-7158,-7144,-7131,-7125,-7099,-7109,-7107,-7083,-7075,-7075,-7059,-7033,-7033,-7006,-7005,-6983,-6953,-6931,-6912,-6910,-6903,-6939,-6956,-7118,-7318,-7598,-7642,-7737,-7818,-7860,-7867,-7840,-7804,-7974,-7778,-7767,-7745,-7752,-7742,-7750,-7754,-7857,-7718,-7694,-7676,-7627,-7611,-7572,-7582,-7604,-7584,-7593,-7600,-7594,-7575,-7581,-7565,-7560,-7537,-7528,-7483,-7467,-7443,-7390,-7393,-7360,-7329,-7327,-7285,-7266,-7279,-7280,-7272,-7228,-7225,-7197,-7173,-7163,-7149,-7146,-7132,-7096,-7109,-7099,-7100,-7076,-7065,-7142,-7038,-7030,-7018,-7006,-6970,-6964,-6941,-6927,-6918,-6944,-7016,-7179,-7371,-7570,-7703,-7825,-7905,-7968,-7971,-7986,-7984,-7964,-7957,-7927,-7924,-7918,-7904,-7921,-7927,-7942,-7931,-7920,-7885,-7855,-7801,-7778,-7764,-7732,-7732,-7730,-7734,-7719,-7707,-7711,-7734,-7699,-7690,-7663,-7634,-7615,-7602,-7600,-7555,-7507,-7481,-7479,-7424,-7431,-7394,-7397,-7366,-7332,-7316,-7384,-7319,-7276,-7421,-7285,-7358,-7238,-7252,-7374,-7211,-7219,-7217,-7199,-7167,-7139,-7135,-7230,-7089,-7073,-7054,-7038,-7024,-6996,-6997,-7088,-7177,-7351,-7542,-7707,-7841,-7923,-7969,-7991,-7989,-7987,-7998,-7974,-7953,-7911,-7906,-7894,-7889,-7921,-7911,-7923,-7896,-7873,-7836,-7802,-7760,-7730,-7712,-7696,-7714,-7696,-7702,-7682,-7684,-7685,-7686,-7670,-7650,-7624,-7670,-7553,-7553,-7520,-7481,-7456,-7431,-7388,-7363,-7348,-7336,-7322,-7304,-7268,-7282,-7253,-7227,-7223,-7223,-7215,-7197,-7192,-7190,-7154,-7170,-7174,-7147,-7128,-7094,-7080,-7053,-7033,-7025,-7003,-6985,-7002,-6963,-6975,-7013,-7058,-7223,-7436,-7643,-7776,-7889,-7932,-7961,-7985,-7979,-7944,-7939,-7909,-7852,-7835,-7825,-7834,-7827,-7811,-7789,-7771,-7747,-7713,-7685,-7661,-7745,-7652,-7643,-7659,-7677,-7686,-7657,-7681,-7838,-7670,-7660,-7641,-7612,-7600,-7532,-7516,-7619,-7479,-7458,-7428,-7385,-7376,-7349,-7318,-7351,-7303,-7289,-7276,-7260,-7276,-7233,-7254,-7232,-7211,-7212,-7216,-7193,-7171,-7148,-7136,-7123,-7103,-7059,-7061,-7055,-7019,-7015,-7008,-7045,-7148,-7320,-7559,-7729,-7867,-7949,-8030,-8078,-8063,-8066,-8043,-8044,-8009,-7990,-8018,-7964,-7943,-7949,-7950,-7934,-7902,-7859,-7873,-7843,-7823,-7788,-7773,-7771,-7756,-7766,-7746,-7762,-7767,-7765,-7750,-7710,-7719,-7678,-7655,-7603,-7606,-7589,-7541,-7509,-7487,-7451,-7434,-7397,-7384,-7377,-7362,-7335,-7331,-7314,-7306,-7291,-7274,-7270,-7294,-7267,-7272,-7243,-7232,-7237,-7215,-7180,-7172,-7145,-7126,-7110,-7088,-7094,-7049,-7055,-7097,-7208,-7398,-7650,-7914,-7973,-8079,-8122,-8160,-8190,-8203,-8163,-8302,-8144,-8110,-8113,-8085,-8079,-8101,-8103,-8215,-8093,-8080,-8020,-8003,-7966,-7930,-7905,-7926,-7884,-7886,-7893,-7907,-7869,-7884,-7857,-7866,-7848,-7834,-7816,-7785,-7743,-7735,-7721,-7674,-7641,-7600,-7571,-7549,-7533,-7500,-7481,-7484,-7448,-7432,-7422,-7391,-7389,-7385,-7374,-7351,-7339,-7322,-7323,-7249,-7255,-7314,-7196,-7209,-7180,-7146,-7149,-7116,-7120,-7116,-7157,-7271,-7475,-7715,-7876,-8002,-8091,-8160,-8188,-8188,-8166,-8117,-8125,-8071,-8065,-8031,-8022,-8021,-8027,-8011,-7982,-7991,-7940,-7897,-7878,-7835,-7826,-7802,-7804,-7798,-7809,-7821,-7805,-7814,-7819,-7814,-7796,-7761,-7732,-7708,-7663,-7651,-7580,-7557,-7510,-7503,-7492,-7468,-7457,-7431,-7419,-7383,-7392,-7362,-7348,-7417,-7336,-7320,-7313,-7289,-7287,-7278,-7267,-7388,-7218,-7221,-7176,-7169,-7148,-7113,-7110,-7224,-7077,-7103,-7165,-7321,-7535,-7735,-7894,-8042,-8100,-8127,-8131,-8162,-8117,-8088,-8071,-8032,-8008,-7976,-7965,-7970,-7965,-7938,-7915,-7885,-7869,-7832,-7798,-7790,-7777,-7772,-7810,-7797,-7808,-7821,-7825,-7816,-7774,-7776,-7767,-7735,-7701,-7668,-7621,-7583,-7549,-7507,-7566,-7467,-7448,-7405,-7371,-7364,-7346,-7335,-7343,-7317,-7319,-7272,-7279,-7289,-7285,-7296,-7251,-7261,-7233,-7218,-7181,-7182,-7163,-7154,-7149,-7101,-7111,-7084,-7114,-7185,-7344,-7603,-7823,-7981,-8121,-8178,-8225,-8237,-8242,-8216,-8234,-8202,-8170,-8156,-8123,-8109,-8093,-8134,-8121,-8120,-8077,-8047,-8025,-7983,-7947,-7941,-7921,-7909,-7909,-7916,-7920,-7915,-7923,-7904,-8007,-7902,-7856,-7957,-7793,-7859,-7731,-7700,-7861,-7634,-7610,-7576,-7583,-7543,-7537,-7497,-7602,-7494,-7468,-7465,-7434,-7447,-7438,-7425,-7415,-7396,-7379,-7374,-7355,-7342,-7309,-7281,-7262,-7251,-7247,-7217,-7237,-7199,-7193,-7267,-7419,-7616,-7848,-8027,-8149,-8235,-8284,-8308,-8317,-8315,-8278,-8231,-8229,-8205,-8156,-8175,-8152,-8154,-8160,-8137,-8114,-8069,-8038,-8111,-7968,-7947,-7938,-7938,-7932,-7928,-7930,-7924,-7930,-7910,-7894,-7877,-7870,-7855,-7818,-7791,-7758,-7725,-7667,-7650,-7606,-7587,-7558,-7548,-7507,-7522,-7506,-7484,-7475,-7456,-7424,-7417,-7417,-7416,-7390,-7344,-7347,-7344,-7316,-7306,-7293,-7278,-7268,-7231,-7215,-7168,-7165,-7153,-7151,-7165,-7241,-7402,-7640,-7861,-8025,-8128,-8195,-8243,-8254,-8250,-8221,-8170,-8141,-8254,-8086,-8045,-8045,-8008,-7995,-7990,-7957,-8078,-7934,-7894,-7854,-7862,-7840,-7849,-7868,-7891,-7891,-7885,-7865,-7847,-7864,-7834,-7793,-7792,-7752,-7726,-7690,-7642,-7630,-7572,-7561,-7534,-7500,-7490,-7486,-7491,-7473,-7466,-7450,-7430,-7433,-7407,-7379,-7394,-7378,-7366,-7360,-7326,-7336,-7297,-7294,-7256,-7247,-7237,-7224,-7202,-7195,-7226,-7284,-7418,-7648,-7871,-8174,-8125,-8208,-8254,-8296,-8297,-8269,-8226,-8207,-8164,-8149,-8129,-8110,-8096,-8084,-8073,-8048,-8017,-7967,-7969,-7937,-7932,-7916,-7920,-7913,-7932,-7937,-7916,-7928,-7915,-7925,-7890,-7890,-7863,-7818,-7799,-7747,-7725,-7699,-7654,-7621,-7601,-7564,-7523,-7509,-7499,-7507,-7466,-7470,-7448,-7440,-7443,-7453,-7432,-7443,-7399,-7387,-7372,-7351,-7335,-7320,-7320,-7270,-7444,-7401,-7231,-7227,-7207,-7246,-7336,-7500,-7835,-7947,-8116,-8243,-8328,-8373,-8385,-8379,-8373,-8337,-8317,-8413,-8256,-8233,-8235,-8220,-8294,-8226,-8230,-8426,-8177,-8121,-8104,-8043,-8044,-8021,-8037,-8009,-8011,-8039,-8023,-8042,-8031,-8013,-7978,-7943,-7922,-7913,-7882,-7846,-7814,-7789,-7745,-7715,-7695,-7689,-7660,-7647,-7637,-7617,-7604,-7580,-7560,-7561,-7566,-7681,-7514,-7582,-7480,-7488,-7477,-7456,-7448,-7409,-7389,-7438,-7337,-7399,-7351,-7370,-7289,-7268,-7280,-7303,-7411,-7652,-7868,-8072,-8202,-8312,-8403,-8384,-8471,-8357,-8344,-8316,-8271,-8261,-8374,-8272,-8188,-8181,-8198,-8193,-8140,-8138,-8101,-8054,-8160,-8026,-8029,-8010,-8035,-8195,-8055,-8025,-8028,-8024,-7994,-8227,-7972,-8051,-7903,-7859,-7830,-7811,-7779,-7753,-7733,-7865,-7686,-7663,-7661,-7635,-7600,-7588,-7610,-7674,-7576,-7559,-7545,-7530,-7547,-7526,-7529,-7538,-7496,-7506,-7464,-7441,-7416,-7411,-7379,-7360,-7340,-7344,-7331,-7374,-7490,-7692,-7905,-8096,-8230,-8315,-8409,-8422,-8432,-8416,-8398,-8369,-8329,-8273,-8240,-8206,-8207,-8210,-8197,-8185,-8149,-8131,-8110,-8107,-8059,-8070,-8081,-8083,-8085,-8100,-8099,-8104,-8096,-8104,-8235,-8052,-8024,-8023,-7967,-7974,-7926,-7906,-7863,-7845,-7819,-7793,-7784,-7772,-7745,-7749,-7697,-7694,-7708,-7676,-7692,-7653,-7653,-7650,-7614,-7639,-7641,-7608,-7625,-7602,-7587,-7573,-7538,-7517,-7495,-7482,-7481,-7449,-7425,-7482,-7559,-7735,-7960,-8151,-8305,-8424,-8494,-8556,-8540,-8554,-8527,-8516,-8481,-8477,-8436,-8426,-8410,-8409,-8409,-8424,-8407,-8352,-8338,-8318,-8446,-8281,-8290,-8261,-8260,-8278,-8255,-8288,-8370,-8276,-8260,-8264,-8259,-8214,-8189,-8187,-8147,-8118,-8112,-8054,-8032,-8017,-7993,-7966,-7947,-7926,-7897,-7909,-7894,-7875,-7849,-7866,-7848,-7852,-7825,-7819,-7800,-7763,-7749,-7726,-7722,-7687,-7690,-7634,-7624,-7595,-7595,-7569,-7540,-7532,-7606,-7777,-7983,-8156,-8323,-8465,-8544,-8606,-8658,-8632,-8621,-8602,-8570,-8705,-8508,-8504,-8480,-8446,-8458,-8464,-8460,-8411,-8396,-8366,-8343,-8345,-8307,-8312,-8331,-8355,-8355,-8354,-8351,-8355,-8357,-8345,-8302,-8299,-8284,-8262,-8220,-8203,-8168,-8150,-8124,-8089,-8054,-8038,-8017,-7993,-8016,-7987,-7986,-7965,-7963,-7962,-7933,-7965,-7957,-7956,-7941,-7956,-7939,-7911,-7905,-7869,-7861,-7820,-7796,-7761,-7690,-7688,-7695,-7717,-7845,-8037,-8366,-8378,-8517,-8612,-8672,-8683,-8683,-8694,-8782,-8654,-8629,-8612,-8578,-8567,-8564,-8572,-8557,-8524,-8510,-8485,-8433,-8437,-8426,-8410,-8426,-8413,-8428,-8444,-8440,-8456,-8449,-8432,-8418,-8406,-8381,-8362,-8352,-8320,-8284,-8231,-8196,-8160,-8167,-8130,-8119,-8110,-8078,-8075,-8060,-8057,-8055,-8033,-8031,-8013,-8008,-8012,-8010,-8000,-7966,-7967,-7949,-7928,-7918,-7874,-7869,-7851,-7815,-7791,-7760,-7766,-7747,-7756,-7790,-7920,-8116,-8336,-8508,-8650,-8728,-8784,-8840,-8835,-8831,-8809,-8792,-8785,-8737,-8751,-8739,-8726,-8733,-8728,-8750,-8700,-8703,-8673,-8645,-8599,-8629,-8596,-8585,-8588,-8581,-8602,-8601,-8595,-8590,-8583,-8580,-8542,-8533,-8511,-8477,-8451,-8441,-8410,-8393,-8361,-8330,-8311,-8303,-8275,-8252,-8243,-8240,-8209,-8189,-8324,-8177,-8171,-8160,-8144,-8139,-8128,-8106,-8181,-8089,-8052,-8043,-8003,-8007,-7990,-7966,-7948,-7903,-7895,-7867,-7861,-7826,-7907,-8068,-8242,-8456,-8586,-8736,-8835,-8852,-8884,-8902,-8869,-8855,-8818,-8796,-8784,-8768,-8753,-8743,-8766,-8755,-8746,-8717,-8703,-8668,-8635,-8596,-8577,-8571,-8569,-8563,-8558,-8580,-8583,-8565,-8564,-8558,-8522,-8527,-8498,-8459,-8449,-8574,-8374,-8327,-8323,-8296,-8269,-8264,-8241,-8247,-8219,-8213,-8213,-8201,-8163,-8156,-8142,-8104,-8107,-8110,-8103,-8092,-8069,-8067,-8051,-8026,-8017,-7981,-7970,-7943,-7906,-7870,-7858,-7850,-7814,-7806,-7823,-7905,-8062,-8274,-8487,-8627,-8730,-8811,-8851,-8869,-8878,-8860,-8822,-8797,-8761,-8725,-8714,-8694,-8701,-8687,-8664,-8670,-8627,-8612,-8586,-8554,-8529,-8538,-8540,-8698,-8562,-8568,-8562,-8579,-8567,-8555,-8559,-8621,-8517,-8476,-8487,-8430,-8400,-8379,-8349,-8311,-8304,-8275,-8251,-8240,-8253,-8237,-8213,-8200,-8201,-8204,-8171,-8169,-8181,-8169,-8146,-8139,-8131,-8122,-8089,-8092,-8047,-8033,-8026,-7986,-7945,-7909,-7889,-7869,-7899,-7998,-8152,-8394,-8553,-8706,-8819,-8889,-8917,-8958,-8957,-8924,-8903,-8867,-8836,-8806,-8789,-8797,-8941,-8798,-8789,-8798,-8752,-8733,-8700,-8667,-8659,-8656,-8634,-8632,-8621,-8629,-8641,-8638,-8654,-8633,-8615,-8607,-8580,-8566,-8532,-8492,-8465,-8426,-8423,-8389,-8371,-8323,-8308,-8293,-8294,-8264,-8255,-8222,-8215,-8225,-8203,-8193,-8173,-8168,-8176,-8142,-8160,-8130,-8113,-8109,-8081,-8071,-8034,-8007,-7986,-7981,-7929,-7908,-7874,-7876,-7879,-7941,-8099,-8307,-8506,-8688,-8969,-8905,-8940,-8958,-8976,-8968,-8945,-8912,-8895,-8863,-8863,-8864,-8872,-8868,-8853,-8861,-8837,-8815,-8787,-8726,-8711,-8696,-8683,-8692,-8687,-8664,-8669,-8650,-8667,-8648,-8630,-8610,-8592,-8578,-8516,-8512,-8474,-8452,-8417,-8387,-8342,-8332,-8312,-8302,-8260,-8251,-8214,-8210,-8188,-8167,-8168,-8148,-8134,-8138,-8136,-8113,-8093,-8086,-8066,-8046,-8028,-8013,-8115,-7958,-7938,-7903,-7884,-7812,-7817,-7797,-7758,-7755,-7770,-7869,-8066,-8307,-8491,-8642,-8760,-8832,-8837,-8865,-8849,-8842,-8816,-8781,-8758,-8734,-8696,-8683,-8680,-8684,-8685,-8677,-8629,-8623,-8581,-8530,-8521,-8492,-8507,-8507,-8511,-8531,-8509,-8527,-8512,-8516,-8486,-8477,-8449,-8449,-8396,-8369,-8337,-8304,-8271,-8241,-8229,-8219,-8173,-8173,-8156,-8125,-8124,-8089,-8237,-8066,-8063,-8047,-8059,-8030,-8031,-8021,-8092,-7984,-7969,-7961,-7924,-7916,-7903,-7867,-7842,-7818,-7789,-7777,-7793,-7796,-7871,-8029,-8270,-8456,-8627,-8724,-8809,-8853,-8876,-8844,-8841,-8792,-8801,-8777,-8750,-8719,-8730,-8707,-8689,-8719,-8693,-8662,-8648,-8602,-8570,-8540,-8556,-8542,-8528,-8564,-8572,-8567,-8554,-8549,-8521,-8509,-8494,-8470,-8443,-8428,-8377,-8539,-8322,-8281,-8271,-8244,-8238,-8211,-8173,-8175,-8154,-8151,-8145,-8121,-8121,-8112,-8088,-8253,-8063,-8322,-8043,-8043,-8034,-8025,-8040,-7975,-7968,-7932,-7919,-8058,-7993,-7830,-7809,-7814,-7774,-7772,-7835,-8042,-8175,-8368,-8545,-8704,-8810,-9026,-9046,-8942,-8947,-8945,-8932,-8919,-8872,-8861,-8856,-8848,-8843,-8861,-8845,-8955,-8849,-8804,-8783,-8750,-8724,-8690,-8676,-8827,-8642,-8675,-8672,-8665,-8665,-8667,-8650,-8634,-8631,-8600,-8579,-8539,-8511,-8497,-8449,-8445,-8419,-8408,-8358,-8343,-8328,-8325,-8307,-8279,-8300,-8270,-8257,-8245,-8216,-8205,-8213,-8172,-8192,-8161,-8157,-8148,-8134,-8116,-8086,-8074,-8040,-8030,-8003,-7986,-7958,-7926,-7917,-7884,-7874,-7936,-8040,-8248,-8454,-8635,-8778,-8876,-8925,-8950,-8963,-8951,-8924,-8894,-8886,-8851,-8827,-8808,-8817,-8811,-8821,-8788,-8789,-8743,-8712,-8659,-8657,-8639,-8605,-8578,-8607,-8603,-8620,-8633,-8621,-8614,-8600,-8591,-8576,-8548,-8503,-8485,-8450,-8419,-8395,-8370,-8341,-8336,-8317,-8293,-8277,-8247,-8242,-8209,-8188,-8183,-8185,-8168,-8163,-8132,-8156,-8132,-8132,-8125,-8105,-8080,-8070,-8047,-8031,-7998,-8085,-7951,-7922,-7902,-7878,-7864,-7826,-7816,-8005,-7927,-8123,-8318,-8507,-8638,-8744,-8859,-8880,-8895,-8875,-8863,-8846,-8790,-8772,-8751,-8712,-8679,-8674,-8659,-8621,-8610,-8572,-8566,-8516,-8534,-8543,-8552,-8560,-8587,-8594,-8705,-8562,-8556,-8548,-8526,-8522,-8523,-8462,-8438,-8424,-8390,-8342,-8317,-8289,-8282,-8260,-8246,-8246,-8227,-8183,-8199,-8178,-8194,-8194,-8184,-8144,-8151,-8148,-8130,-8131,-8104,-8299,-8150,-8087,-8019,-8085,-7979,-7962,-7946,-7933,-7896,-7880,-7881,-7939,-8065,-8339,-8475,-8651,-8779,-8881,-8922,-8944,-8961,-9099,-8923,-8891,-8846,-8845,-8844,-8776,-8778,-8797,-8780,-8787,-8749,-8719,-8699,-8647,-8629,-8618,-8608,-8621,-8596,-8612,-8610,-8623,-8604,-8612,-8590,-8586,-8538,-8512,-8480,-8478,-8419,-8399,-8372,-8350,-8343,-8312,-8286,-8240,-8245,-8227,-8207,-8368,-8204,-8174,-8164,-8148,-8136,-8114,-8121,-8223,-8114,-8106,-8064,-8062,-8051,-8003,-7970,-7979,-7938,-7890,-7876,-7889,-7849,-7841,-7855,-8074,-8023,-8252,-8471,-8661,-8884,-8868,-9060,-8982,-8992,-8978,-8959,-8950,-8909,-8901,-8893,-8878,-8857,-8878,-8877,-8896,-8866,-8837,-8807,-8774,-8743,-8767,-8956,-8746,-8709,-8686,-8697,-8719,-8731,-8710,-8677,-8671,-8653,-8634,-8600,-8559,-8607,-8522,-8483,-8425,-8422,-8375,-8464,-8311,-8294,-8472,-8245,-8227,-8214,-8189,-8182,-8168,-8160,-8162,-8266,-8125,-8108,-8106,-8170,-8080,-8043,-8020,-8166,-7984,-7947,-7920,-7900,-7886,-7858,-7821,-7887,-7996,-7848,-7997,-8203,-8440,-8604,-8749,-8837,-8890,-8925,-8906,-8908,-8897,-8863,-8827,-8782,-8752,-8742,-8719,-8817,-8713,-8713,-8676,-8657,-8634,-8591,-8559,-8684,-8539,-8544,-8562,-8581,-8573,-8585,-8580,-8575,-8559,-8546,-8535,-8483,-8457,-8430,-8398,-8345,-8334,-8304,-8291,-8254,-8233,-8199,-8164,-8159,-8123,-8131,-8129,-8109,-8127,-8087,-8091,-8088,-8068,-8066,-8054,-8035,-8022,-8002,-7960,-7950,-7922,-7900,-7854,-7860,-7817,-7793,-7788,-7811,-7878,-8041,-8278,-8475,-8652,-8760,-8832,-8864,-8877,-8900,-8879,-8836,-8804,-8776,-8732,-8709,-8711,-8682,-8691,-8691,-8664,-8637,-8597,-8574,-8554,-8535,-8550,-8551,-8559,-8591,-8587,-8580,-8581,-8605,-8557,-8555,-8529,-8514,-8475,-8430,-8436,-8412,-8359,-8335,-8305,-8265,-8231,-8213,-8192,-8185,-8165,-8170,-8158,-8163,-8154,-8150,-8148,-8165,-8150,-8151,-8116,-8117,-8117,-8085,-8065,-8047,-8031,-7986,-7956,-7951,-8039,-7942,-8044,-8199,-8443,-8623,-8767,-8879,-9096,-8979,-9027,-9022,-8992,-9001,-8979,-8937,-8943,-8900,-8915,-8924,-8912,-8934,-8912,-8921,-8874,-8852,-8813,-8782,-8787,-8792,-8775,-8779,-8789,-8778,-8760,-8785,-8753,-8753,-8732,-8720,-8690,-8674,-8653,-8612,-8573,-8546,-8532,-8504,-8479,-8451,-8436,-8439,-8397,-8395,-8369,-8353,-8360,-8387,-8347,-8349,-8338,-8340,-8318,-8298,-8269,-8267,-8246,-8209,-8211,-8179,-8144,-8163,-8120,-8101,-8121,-8174,-8295,-8488,-8657,-8812,-8934,-9042,-9106,-9111,-9109,-9122,-9115,-9094,-9067,-9042,-9068,-9039,-9061,-9072,-9072,-9046,-9033,-9024,-9001,-8954,-8906,-8900,-8872,-8875,-8875,-9030,-9116,-9029,-8850,-8873,-9067,-8905,-8915,-8886,-8788,-8748,-8732,-8706,-8692,-8658,-8629,-8623,-8610,-8584,-8577,-8570,-8647,-8530,-8541,-8528,-8519,-8502,-8495,-8484,-8617,-8459,-8469,-8458,-8404,-8410,-8387,-8363,-8445,-8299,-8298,-8246,-8260,-8246,-8204,-8247,-8344,-8510,-8682,-8845,-8960,-9034,-9114,-9148,-9128,-9134,-9122,-9102,-9081,-9071,-9045,-9047,-9047,-9061,-9217,-9072,-9279,-9066,-8999,-8980,-8942,-8945,-8945,-8933,-8947,-8958,-8979,-8999,-8995,-8961,-8987,-8971,-8926,-8901,-8895,-8965,-8834,-9053,-8887,-8774,-8768,-8737,-8753,-8707,-8694,-8682,-8687,-8665,-8666,-8669,-8639,-8657,-8656,-8624,-8602,-8633,-8612,-8770,-8598,-8584,-8568,-8543,-8506,-8516,-8490,-8602,-8471,-8512,-8605,-8766,-8926,-9056,-9246,-9399,-9285,-9313,-9326,-9320,-9320,-9331,-9292,-9284,-9282,-9276,-9279,-9378,-9449,-9312,-9276,-9252,-9241,-9217,-9196,-9168,-9154,-9172,-9167,-9198,-9187,-9317,-9207,-9213,-9203,-9183,-9187,-9158,-9100,-9254,-9080,-9069,-9034,-9002,-8985,-8983,-8961,-8941,-8935,-8923,-8904,-8901,-8901,-8891,-8862,-8868,-8860,-8866,-8858,-8859,-8874,-8854,-8821,-8820,-8796,-8780,-8755,-8981,-8891,-8718,-8698,-8714,-8929,-8942,-9170,-9233,-9329,-9412,-9467,-9489,-9516,-9527,-9538,-9523,-9761,-9519,-9592,-9529,-9526,-9683,-9566,-9545,-9564,-9537,-9513,-9504,-9472,-9438,-9436,-9432,-9418,-9436,-9442,-9439,-9447,-9467,-9461,-9446,-9429,-9426,-9503,-9379,-9516,-9492,-9321,-9295,-9280,-9251,-9325,-9234,-9352,-9188,-9181,-9158,-9148,-9145,-9157,-9172,-9350,-9169,-9114,-9117,-9107,-9084,-9071,-9201,-9201,-9043,-9015,-9011,-8979,-8964,-8941,-8928,-8907,-8908,-8887,-8890,-8951,-9064,-9211,-9355,-9496,-9596,-9653,-9666,-9704,-9712,-9820,-9696,-9700,-9674,-9676,-9661,-9660,-9678,-9841,-9692,-9668,-9650,-9630,-9599,-9572,-9538,-9645,-9556,-9539,-9536,-9534,-9556,-9552,-9577,-9572,-9549,-9552,-9536,-9513,-9478,-9451,-9434,-9416,-9385,-9367,-9544,-9549,-9295,-9285,-9280,-9241,-9213,-9361,-9210,-9195,-9177,-9160,-9155,-9145,-9149,-9107,-9119,-9088,-9105,-9080,-9080,-9061,-9047,-9041,-8995,-8979,-8954,-8916,-8895,-8978,-8853,-8958,-8958,-8810,-8798,-8883,-9040,-9219,-9377,-9511,-9596,-9671,-9707,-9976,-9837,-9712,-9701,-9712,-9660,-9636,-9624,-9635,-9622,-9649,-9632,-9630,-9604,-9573,-9552,-9533,-9532,-9527,-9537,-9537,-9535,-9528,-9564,-9571,-9540,-9560,-9573,-9548,-9520,-9511,-9485,-9545,-9579,-9416,-9388,-9347,-9328,-9326,-9313,-9314,-9280,-9277,-9263,-9238,-9253,-9236,-9228,-9423,-9189,-9446,-9299,-9176,-9149,-9154,-9132,-9279,-9085,-9085,-9050,-9019,-8999,-8970,-8954,-9035,-8923,-8912,-8901,-8915,-8945,-9118,-9271,-9458,-9679,-9656,-9733,-9787,-9781,-9794,-9789,-9765,-9756,-9758,-9746,-9727,-9703,-9720,-9728,-9706,-9741,-9714,-9698,-9669,-9655,-9623,-9632,-9646,-9616,-9632,-9638,-9649,-9649,-9644,-9644,-9648,-9639,-9638,-9595,-9591,-9565,-9548,-9519,-9504,-9480,-9472,-9435,-9421,-9410,-9402,-9527,-9331,-9374,-9464,-9393,-9291,-9285,-9272,-9278,-9250,-9226,-9224,-9196,-9192,-9155,-9141,-9122,-9121,-9105,-9076,-9072,-9030,-9004,-9008,-8967,-8931,-8906,-8892,-8848,-8849,-8836,-8887,-9004,-9225,-9447,-9588,-9704,-9782,-9835,-9880,-9894,-9884,-9873,-9838,-9843,-9840,-9817,-9791,-9820,-9818,-9823,-9840,-9837,-9823,-9791,-9762,-9763,-9736,-9723,-9714,-9717,-9702,-9713,-9728,-9883,-9736,-9717,-9723,-9730,-9711,-9693,-9672,-9737,-9626,-9573,-9577,-9536,-9494,-9503,-9465,-9441,-9408,-9400,-9405,-9376,-9339,-9346,-9347,-9324,-9366,-9459,-9308,-9299,-9279,-9263,-9254,-9247,-9236,-9214,-9213,-9189,-9153,-9137,-9130,-9101,-9074,-9056,-9030,-9002,-8964,-8953,-8956,-8962,-9026,-9205,-9379,-9579,-9693,-9790,-9859,-9900,-9915,-9935,-9910,-9912,-9900,-9880,-9834,-9817,-9813,-9812,-9810,-9826,-9808,-9821,-9776,-9763,-9756,-9750,-9738,-9714,-9704,-9709,-9722,-9738,-9741,-9743,-9738,-9711,-9708,-9694,-9682,-9681,-9652,-9586,-9558,-9530,-9502,-9465,-9428,-9411,-9394,-9384,-9373,-9331,-9336,-9298,-9307,-9282,-9271,-9219,-9226,-9233,-9229,-9231,-9189,-9179,-9173,-9179,-9126,-9118,-9134,-9098,-9156,-9014,-8993,-8991,-8953,-8918,-8900,-8876,-8982,-8824,-8889,-9001,-9230,-9446,-9620,-9724,-9776,-9846,-9850,-9871,-9847,-9846,-9828,-9787,-9769,-9745,-9716,-9693,-9706,-9682,-9699,-9670,-9651,-9613,-9590,-9602,-9591,-9596,-9614,-9629,-9764,-9768,-9644,-9647,-9624,-9633,-9610,-9581,-9563,-9522,-9496,-9454,-9420,-9402,-9338,-9329,-9327,-9298,-9275,-9267,-9246,-9214,-9200,-9187,-9193,-9177,-9174,-9165,-9165,-9169,-9141,-9156,-9115,-9104,-9080,-9067,-9044,-8986,-8971,-8951,-8922,-8909,-8879,-8868,-8868,-8908,-9015,-9233,-9443,-9593,-9712,-9778,-9837,-9866,-9865,-9859,-9859,-9857,-9809,-9813,-9779,-9785,-9883,-9892,-9906,-9764,-9768,-9737,-9707,-9709,-9694,-9668,-9701,-9692,-9693,-9664,-9687,-9686,-9723,-9694,-9671,-9683,-9649,-9638,-9589,-9568,-9635,-9504,-9468,-9446,-9406,-9402,-9385,-9348,-9489,-9310,-9281,-9291,-9262,-9255,-9265,-9233,-9221,-9220,-9209,-9183,-9186,-9167,-9167,-9146,-9116,-9104,-9094,-9078,-9053,-9025,-8998,-8968,-8950,-8907,-8915,-8911,-8989,-9179,-9356,-9516,-9660,-9768,-9819,-9872,-9919,-9902,-9901,-9903,-9889,-9880,-9854,-9835,-9837,-9854,-9847,-9853,-9844,-9830,-9815,-9787,-9768,-9747,-9748,-9748,-9752,-9755,-9770,-9758,-9744,-9763,-9742,-9730,-9718,-9701,-9682,-9671,-9653,-9631,-9603,-9568,-9560,-9528,-9487,-9455,-9431,-9436,-9431,-9416,-9393,-9367,-9361,-9381,-9338,-9334,-9295,-9312,-9297,-9283,-9246,-9212,-9211,-9187,-9141,-9271,-9103,-9077,-9074,-9023,-9015,-8991,-8962,-8975,-9045,-9234,-9407,-9603,-9721,-9812,-9856,-9924,-9918,-9913,-9899,-9884,-9850,-9846,-9808,-9922,-9797,-9813,-9809,-9791,-9766,-9773,-9749,-9883,-9683,-9671,-9652,-9676,-9666,-9670,-9680,-9646,-9657,-9662,-9669,-9630,-9614,-9591,-9578,-9540,-9494,-9474,-9428,-9397,-9380,-9340,-9289,-9288,-9277,-9249,-9240,-9224,-9201,-9196,-9178,-9166,-9164,-9134,-9135,-9110,-9116,-9096,-9089,-9042,-9036,-9005,-8985,-8958,-8940,-8934,-8888,-8875,-8868,-8815,-8790,-8778,-8794,-8863,-9038,-9243,-9444,-9606,-9716,-9783,-9818,-9822,-9821,-9821,-9800,-9773,-9747,-9720,-9698,-9675,-9672,-9656,-9655,-9650,-9624,-9605,-9573,-9565,-9545,-9541,-9550,-9571,-9572,-9574,-9570,-9582,-9583,-9577,-9540,-9537,-9490,-9491,-9459,-9435,-9377,-9322,-9308,-9279,-9266,-9240,-9218,-9200,-9203,-9186,-9166,-9159,-9126,-9108,-9113,-9101,-9106,-9083,-9072,-9092,-9073,-9071,-9032,-9022,-9099,-8967,-8948,-8898,-8894,-8868,-8820,-8806,-8936,-8768,-8798,-8910,-9071,-9307,-9508,-9638,-9734,-9784,-9819,-9838,-9840,-9838,-9807,-9783,-9782,-9746,-9740,-9739,-9743,-9742,-9735,-9731,-9712,-9702,-9685,-9635,-9627,-9638,-9623,-9622,-9781,-9624,-9627,-9633,-9618,-9704,-9610,-9589,-9583,-9542,-9533,-9501,-9472,-9428,-9407,-9379,-9332,-9304,-9304,-9274,-9266,-9221,-9231,-9209,-9219,-9186,-9184,-9167,-9163,-9155,-9146,-9172,-9108,-9114,-9089,-9088,-9044,-9037,-8997,-8964,-8925,-8930,-8903,-8834,-8834,-8844,-8904,-9052,-9265,-9446,-9615,-9716,-9782,-9830,-9861,-9868,-9850,-9835,-9821,-9792,-9766,-9765,-9756,-9754,-9753,-9743,-9740,-9746,-9692,-9656,-9634,-9628,-9600,-9602,-9585,-9598,-9596,-9628,-9608,-9583,-9584,-9570,-9567,-9547,-9534,-9528,-9466,-9417,-9395,-9367,-9312,-9274,-9264,-9226,-9344,-9180,-9166,-9140,-9143,-9119,-9105,-9081,-9150,-9061,-9052,-9043,-9023,-9020,-8999,-8973,-8969,-8943,-8911,-8870,-8846,-8840,-8816,-8777,-8750,-8717,-8681,-8663,-8656,-8660,-8750,-8924,-9157,-9360,-9515,-9648,-9720,-9744,-9762,-9756,-9743,-9708,-9674,-9631,-9624,-9578,-9570,-9559,-9561,-9535,-9532,-9493,-9489,-9435,-9430,-9419,-9404,-9401,-9418,-9402,-9433,-9445,-9456,-9447,-9440,-9427,-9380,-9344,-9310,-9280,-9278,-9208,-9178,-9159,-9117,-9094,-9074,-9071,-9038,-9024,-9040,-9022,-9017,-8989,-8997,-8988,-8993,-8938,-8966,-8937,-8924,-8917,-8902,-8881,-8838,-8826,-8812,-8783,-8732,-8708,-8704,-8671,-8641,-8648,-8681,-8821,-9017,-9229,-9392,-9575,-9658,-9745,-9724,-9760,-9723,-9723,-9688,-9674,-9626,-9728,-9592,-9601,-9594,-9612,-9570,-9558,-9544,-9686,-9494,-9482,-9466,-9463,-9438,-9472,-9464,-9467,-9471,-9479,-9467,-9448,-9436,-9403,-9375,-9349,-9303,-9273,-9241,-9211,-9147,-9131,-9111,-9080,-9067,-9057,-9034,-9021,-8996,-8986,-8972,-8990,-9015,-8932,-8920,-8977,-9061,-8922,-8876,-8888,-8873,-8861,-8832,-8820,-8971,-8786,-8784,-8873,-8690,-8689,-8655,-8766,-8659,-8715,-8871,-9092,-9307,-9542,-9695,-9749,-9735,-9783,-9790,-9776,-9743,-9731,-9716,-9904,-9820,-9658,-9667,-9678,-9674,-9668,-9663,-9644,-9732,-9599,-9593,-9529,-9537,-9525,-9543,-9534,-9518,-9518,-9528,-9502,-9507,-9466,-9463,-9447,-9391,-9380,-9335,-9318,-9287,-9248,-9216,-9195,-9168,-9161,-9224,-9347,-9194,-9305,-9037,-9009,-9000,-8983,-9204,-8971,-9171,-9159,-8917,-9025,-8901,-8880,-9019,-8847,-9032,-8775,-8940,-8877,-8705,-8661,-8779,-8757,-8589,-8532,-8532,-8518,-8583,-8746,-9016,-9193,-9408,-9569,-9643,-9677,-9702,-9708,-9682,-9661,-9648,-9607,-9588,-9612,-9552,-9619,-9549,-9550,-9545,-9535,-9510,-9457,-9430,-9405,-9384,-9368,-9363,-9360,-9382,-9387,-9398,-9377,-9369,-9363,-9326,-9309,-9265,-9258,-9176,-9155,-9124,-9104,-9051,-9006,-8989,-8963,-8930,-8900,-8892,-8890,-8893,-8856,-8830,-8824,-8826,-8812,-8793,-8794,-8794,-8776,-8767,-8732,-8742,-8725,-8706,-8687,-8658,-8665,-8592,-8579,-8551,-8517,-8492,-8476,-8465,-8451,-8491,-8658,-8876,-9107,-9300,-9444,-9524,-9583,-9608,-9613,-9614,-9609,-9535,-9493,-9460,-9422,-9433,-9436,-9405,-9363,-9373,-9334,-9302,-9301,-9293,-9287,-9348,-9276,-9278,-9303,-9281,-9292,-9305,-9281,-9405,-9237,-9211,-9187,-9143,-9096,-9081,-9057,-9169,-8983,-8980,-8935,-8921,-8897,-8891,-8889,-8881,-8848,-8848,-8839,-8817,-8788,-8806,-8786,-8765,-8769,-8755,-8733,-8734,-8712,-8689,-8698,-8655,-8647,-8630,-8586,-8543,-8524,-8539,-8486,-8465,-8451,-8485,-8612,-8821,-9062,-9274,-9421,-9530,-9617,-9621,-9624,-9650,-9622,-9609,-9579,-9550,-9530,-9523,-9525,-9532,-9551,-9541,-9557,-9532,-9508,-9488,-9466,-9427,-9429,-9410,-9527,-9432,-9418,-9396,-9424,-9406,-9409,-9402,-9374,-9363,-9332,-9305,-9267,-9242,-9209,-9173,-9166,-9213,-9258,-9088,-9101,-9109,-9028,-9004,-8987,-8992,-8962,-8956,-8947,-8934,-8922,-8907,-8871,-8865,-8885,-8852,-8836,-8799,-8782,-8760,-8729,-8705,-8670,-8624,-8619,-8594,-8570,-8533,-8602,-8597,-8762,-8999,-9188,-9366,-9504,-9575,-9765,-9649,-9641,-9650,-9613,-9585,-9547,-9533,-9638,-9479,-9450,-9462,-9454,-9459,-9433,-9398,-9385,-9370,-9341,-9327,-9328,-9318,-9356,-9332,-9359,-9342,-9331,-9327,-9300,-9288,-9253,-9238,-9208,-9195,-9167,-9120,-9089,-9047,-9015,-8997,-8965,-8948,-9084,-8935,-9000,-8995,-8883,-8865,-8838,-8864,-8838,-8838,-8813,-8808,-8791,-8777,-8774,-8761,-8725,-8708,-8720,-8658,-8645,-8620,-8565,-8556,-8530,-8627,-8584,-8585,-8563,-8843,-8908,-9118,-9356,-9550,-9472,-9727,-9543,-9705,-9549,-9520,-9502,-9457,-9428,-9397,-9371,-9355,-9373,-9363,-9350,-9316,-9286,-9252,-9221,-9214,-9229,-9222,-9252,-9259,-9261,-9259,-9262,-9284,-9294,-9224,-9196,-9187,-9392,-9106,-9089,-9200,-9126,-9018,-9127,-8937,-8960,-8891,-8878,-9098,-8833,-8955,-8925,-8819,-8784,-8879,-8797,-9015,-8794,-8747,-8886,-8720,-8694,-8666,-8629,-8717,-8582,-8544,-8523,-8545,-8678,-8440,-8434,-8442,-8431,-8460,-8563,-8764,-9017,-9300,-9364,-9479,-9520,-9566,-9567,-9563,-9538,-9501,-9477,-9453,-9414,-9413,-9399,-9416,-9400,-9414,-9394,-9560,-9350,-9467,-9299,-9262,-9271,-9246,-9253,-9257,-9260,-9272,-9236,-9246,-9227,-9196,-9181,-9165,-9113,-9202,-9153,-9011,-8983,-8966,-8925,-8880,-8836,-8836,-8808,-8791,-8784,-8778,-8759,-8741,-8734,-8749,-8925,-8751,-8827,-8680,-8764,-8653,-8658,-8667,-8619,-8613,-8595,-8579,-8549,-8567,-8518,-8485,-8466,-8435,-8406,-8406,-8402,-8443,-8587,-8789,-9001,-9200,-9373,-9476,-9539,-9565,-9721,-9562,-9663,-9536,-9506,-9504,-9490,-9455,-9437,-9458,-9466,-9492,-9598,-9441,-9507,-9389,-9355,-9306,-9283,-9281,-9269,-9421,-9313,-9273,-9249,-9232,-9236,-9188,-9167,-9245,-9112,-9097,-9098,-8998,-9108,-8924,-8919,-8900,-8850,-8853,-8836,-8791,-8780,-8762,-8739,-8724,-8712,-8694,-8684,-8669,-8647,-8608,-8601,-8614,-8606,-8562,-8551,-8536,-8534,-8492,-8456,-8441,-8424,-8374,-8376,-8351,-8308,-8292,-8285,-8320,-8428,-8611,-8851,-9065,-9242,-9355,-9431,-9470,-9459,-9455,-9443,-9422,-9387,-9349,-9311,-9301,-9271,-9230,-9234,-9240,-9216,-9211,-9145,-9126,-9105,-9080,-9079,-9084,-9071,-9095,-9085,-9084,-9089,-9103,-9080,-9076,-9049,-9018,-8996,-8959,-8900,-8893,-8847,-8832,-8805,-8790,-8750,-8739,-8711,-8710,-8697,-8668,-8668,-8651,-8647,-8636,-8620,-8621,-8615,-8616,-8600,-8596,-8602,-8590,-8539,-8532,-8502,-8472,-8428,-8413,-8528,-8368,-8342,-8335,-8330,-8399,-8517,-8712,-9100,-9128,-9285,-9391,-9440,-9498,-9512,-9489,-9571,-9445,-9419,-9391,-9371,-9325,-9344,-9322,-9315,-9319,-9309,-9276,-9246,-9233,-9181,-9204,-9188,-9187,-9189,-9189,-9179,-9177,-9185,-9178,-9184,-9148,-9128,-9101,-9059,-9013,-8995,-8965,-8935,-8902,-8888,-8840,-8832,-8819,-8805,-8792,-8785,-8777,-8773,-8759,-8749,-8734,-8723,-8714,-8714,-8693,-8665,-8652,-8669,-8646,-8627,-8617,-8604,-8580,-8535,-8526,-8504,-8473,-8450,-8428,-8428,-8435,-8501,-8698,-8910,-9093,-9258,-9406,-9490,-9544,-9578,-9583,-9578,-9555,-9537,-9515,-9481,-9501,-9500,-9481,-9501,-9510,-9501,-9492,-9476,-9449,-9416,-9395,-9367,-9337,-9322,-9335,-9413,-9335,-9316,-9312,-9437,-9398,-9283,-9267,-9232,-9197,-9346,-9118,-9313,-9046,-9016,-9097,-8980,-8943,-8915,-8907,-8888,-8880,-8873,-9001,-8832,-8817,-8814,-8807,-8792,-8793,-8753,-8847,-8724,-8740,-8727,-8702,-8682,-8639,-8617,-8604,-8551,-8530,-8505,-8473,-8462,-8424,-8454,-8486,-8658,-8886,-9066,-9241,-9368,-9441,-9490,-9533,-9507,-9518,-9469,-9471,-9455,-9430,-9394,-9523,-9396,-9403,-9501,-9621,-9597,-9343,-9302,-9270,-9257,-9231,-9215,-9218,-9225,-9208,-9216,-9205,-9210,-9176,-9170,-9166,-9139,-9127,-9085,-9033,-9016,-8977,-8956,-8926,-8891,-8856,-8841,-8863,-8807,-8801,-8765,-8764,-8756,-8739,-8731,-8713,-8723,-8707,-8698,-8692,-8677,-8671,-8651,-8619,-8588,-8557,-8537,-8531,-8501,-8469,-8447,-8450,-8426,-8390,-8391,-8472,-8620,-8827,-9033,-9199,-9315,-9422,-9598,-9715,-9520,-9524,-9534,-9460,-9494,-9400,-9405,-9398,-9393,-9384,-9490,-9352,-9331,-9282,-9272,-9246,-9221,-9226,-9361,-9220,-9213,-9217,-9219,-9207,-9215,-9193,-9260,-9178,-9123,-9114,-9089,-9042,-8989,-8955,-8948,-8916,-8900,-8858,-8839,-8831,-8812,-8789,-8785,-8733,-8719,-8728,-8731,-8717,-8724,-8702,-8694,-8692,-8677,-8690,-8659,-8653,-8629,-8612,-8565,-8551,-8535,-8527,-8491,-8479,-8469,-8459,-8552,-8684,-8888,-9104,-9296,-9409,-9508,-9545,-9580,-9596,-9602,-9586,-9588,-9540,-9539,-9530,-9537,-9558,-9566,-9569,-9583,-9534,-9764,-9473,-9602,-9567,-9405,-9392,-9505,-9369,-9380,-9379,-9361,-9348,-9352,-9336,-9348,-9321,-9314,-9300,-9266,-9254,-9209,-9185,-9177,-9144,-9138,-9097,-9075,-9075,-9049,-9039,-9031,-9026,-9013,-8964,-8965,-8935,-8917,-8924,-8910,-8892,-8927,-8870,-8873,-8858,-8833,-8813,-8800,-8758,-8761,-8706,-8666,-8647,-8637,-8612,-8597,-8622,-8686,-8841,-9013,-9205,-9344,-9481,-9533,-9603,-9680,-9632,-9618,-9591,-9565,-9642,-9548,-9544,-9534,-9528,-9526,-9537,-9544,-9525,-9514,-9480,-9516,-9443,-9589,-9595,-9689,-9455,-9481,-9495,-9496,-9498,-9500,-9502,-9501,-9483,-9487,-9461,-9457,-9431,-9406,-9400,-9409,-9384,-9396,-9381,-9389,-9385,-9372,-9368,-9337,-9328,-9322,-9315,-9315,-9298,-9289,-9261,-9244,-9248,-9234,-9202,-9204,-9196,-9195,-9180,-9180,-9150,-9149,-9103,-9080,-9042,-9034,-9015,-8993,-8983,-8976,-8989,-9072,-9199,-9340,-9477,-9574,-9667,-9728,-9773,-9792,-9787,-9778,-9775,-9763,-9781,-9763,-9751,-9738,-9741,-9743,-9729,-9748,-9731,-9705,-9696,-9681,-9694,-9706,-9705,-9706,-9716,-9697,-9781,-9705,-9706,-9717,-9703,-9691,-9686,-9650,-9811,-9624,-9593,-9577,-9562,-9531,-9550,-9521,-9629,-9501,-9495,-9482,-9457,-9456,-9456,-9442,-9493,-9450,-9411,-9410,-9423,-9410,-9387,-9390,-9362,-9336,-9330,-9339,-9298,-9316,-9269,-9250,-9211,-9180,-9148,-9136,-9150,-9162,-9207,-9352,-9491,-9665,-9776,-9858,-9931,-9976,-9987,-10007,-10023,-10015,-10008,-9994,-9983,-9956,-9966,-9999,-10004,-9982,-9992,-9998,-9976,-9966,-9965,-9952,-9948,-9947,-9952,-9937,-9946,-9947,-9950,-9958,-9959,-9940,-9934,-9910,-9908,-9875,-9865,-9834,-9834,-9817,-9789,-9758,-9764,-9728,-9701,-9683,-9640,-9650,-9619,-9603,-9589,-9598,-9582,-9574,-9560,-9547,-9541,-9537,-9512,-9494,-9504,-9481,-9471,-9450,-9424,-9411,-9392,-9336,-9309,-9267,-9278,-9240,-9220,-9200,-9191,-9273,-9407,-9615,-9730,-9882,-9978,-10055,-10112,-10155,-10173,-10294,-10146,-10133,-10136,-10125,-10096,-10105,-10103,-10241,-10137,-10102,-10139,-10120,-10112,-10098,-10064,-10110,-10075,-10072,-10083,-10066,-10086,-10068,-10082,-10080,-10068,-10069,-10048,-10051,-10022,-9991,-9998,-9965,-9941,-9932,-9891,-9893,-9867,-9838,-9826,-9807,-9775,-9753,-9737,-9719,-9695,-9680,-9666,-9639,-9606,-9611,-9601,-9564,-9556,-9528,-9520,-9482,-9443,-9439,-9424,-9371,-9349,-9300,-9300,-9275,-9242,-9302,-9599,-9691,-9737,-9859,-9984,-10073,-10115,-10157,-10169,-10191,-10184,-10183,-10161,-10129,-10111,-10093,-10087,-10072,-10071,-10067,-10065,-10045,-10004,-10011,-9987,-9959,-9945,-9967,-9942,-9955,-9950,-9973,-9977,-9973,-9960,-9949,-9916,-9911,-9866,-9861,-9838,-9813,-9773,-9755,-9721,-9684,-9664,-9650,-9625,-9613,-9602,-9573,-9556,-9535,-9515,-9512,-9521,-9519,-9518,-9513,-9477,-9469,-9455,-9438,-9394,-9381,-9365,-9315,-9282,-9286,-9245,-9244,-9221,-9235,-9333,-9534,-9870,-9857,-9959,-10051,-10344,-10154,-10151,-10135,-10148,-10137,-10090,-10089,-10063,-10056,-10033,-10029,-10038,-10014,-10033,-10001,-9983,-9939,-10090,-9935,-9933,-9961,-10097,-9961,-9937,-9964,-10072,-9944,-9938,-9917,-9896,-9892,-9849,-9819,-9781,-9750,-9711,-9938,-9791,-9792,-9633,-9610,-9599,-9590,-9606,-9564,-9565,-9565,-9544,-9531,-9522,-9527,-9490,-9489,-9483,-9461,-9450,-9437,-9403,-9393,-9384,-9357,-9340,-9310,-9406,-9276,-9333,-9426,-9758,-9758,-9927,-10082,-10277,-10186,-10219,-10251,-10254,-10374,-10334,-10357,-10221,-10218,-10197,-10210,-10290,-10292,-10231,-10308,-10177,-10178,-10152,-10140,-10137,-10125,-10131,-10111,-10291,-10115,-10202,-10183,-10101,-10091,-10090,-10078,-10066,-10046,-10256,-10019,-10004,-9989,-9968,-9933,-9923,-9900,-9989,-9853,-9827,-9820,-9799,-9792,-9772,-9766,-9789,-9757,-9742,-9728,-9729,-9712,-9723,-9708,-9736,-9723,-9663,-9629,-9582,-9562,-9532,-9516,-9521,-9488,-9510,-9576,-9674,-9838,-10001,-10123,-10193,-10273,-10320,-10337,-10337,-10354,-10343,-10350,-10331,-10318,-10313,-10311,-10318,-10339,-10315,-10321,-10319,-10262,-10267,-10226,-10187,-10208,-10197,-10191,-10193,-10188,-10185,-10201,-10204,-10200,-10202,-10183,-10183,-10155,-10134,-10093,-10093,-10064,-10021,-10062,-10000,-9973,-9959,-9948,-9933,-9908,-9884,-9884,-9856,-9871,-9859,-9846,-9821,-9826,-9821,-9780,-9795,-9770,-9782,-9753,-9735,-9715,-9693,-9690,-9655,-9627,-9609,-9552,-9532,-9529,-9495,-9498,-9526,-9632,-9799,-9959,-10112,-10215,-10295,-10318,-10352,-10366,-10367,-10359,-10343,-10329,-10296,-10289,-10295,-10303,-10294,-10317,-10301,-10273,-10254,-10241,-10219,-10205,-10208,-10202,-10185,-10205,-10219,-10244,-10232,-10233,-10238,-10232,-10200,-10186,-10181,-10162,-10130,-10110,-10077,-10049,-10031,-10005,-10019,-10016,-10003,-9983,-9951,-9945,-9949,-9921,-9917,-9912,-9909,-9922,-9879,-9892,-9886,-9879,-9838,-9838,-9856,-9820,-9781,-9771,-9759,-9738,-9703,-9678,-9644,-9627,-9626,-9661,-9749,-9901,-10065,-10185,-10314,-10389,-10426,-10438,-10476,-10480,-10483,-10446,-10459,-10435,-10417,-10437,-10459,-10482,-10444,-10444,-10429,-10419,-10403,-10400,-10368,-10374,-10362,-10371,-10373,-10406,-10380,-10403,-10405,-10390,-10394,-10380,-10371,-10353,-10324,-10300,-10292,-10274,-10242,-10217,-10211,-10180,-10163,-10126,-10137,-10118,-10105,-10088,-10063,-10082,-10063,-10055,-10030,-10020,-10021,-9981,-9957,-9964,-9964,-9944,-9934,-9923,-9920,-9885,-9880,-9852,-9827,-9793,-9767,-9737,-9730,-9730,-9718,-9773,-9904,-10053,-10222,-10382,-10458,-10534,-10583,-10631,-10653,-10661,-10649,-10651,-10668,-10683,-10671,-10673,-10662,-10677,-10695,-10694,-10692,-10689,-10666,-10639,-10605,-10593,-10580,-10570,-10580,-10575,-10584,-10607,-10599,-10598,-10578,-10672,-10590,-10684,-10610,-10549,-10506,-10492,-10475,-10454,-10444,-10416,-10410,-10475,-10365,-10335,-10451,-10305,-10297,-10258,-10230,-10390,-10217,-10223,-10208,-10188,-10168,-10145,-10125,-10112,-10101,-10080,-10048,-10045,-10016,-10020,-9979,-9941,-9923,-9906,-9867,-9843,-9805,-9778,-9754,-9765,-9809,-9919,-10079,-10288,-10419,-10522,-10601,-10660,-10689,-10690,-10735,-10727,-10713,-10701,-10687,-10668,-10671,-10669,-10658,-10673,-10679,-10686,-10653,-10624,-10612,-10579,-10574,-10572,-10567,-10565,-10544,-10571,-10573,-10571,-10565,-10577,-10549,-10545,-10519,-10497,-10479,-10456,-10432,-10403,-10376,-10360,-10337,-10311,-10291,-10250,-10273,-10232,-10215,-10197,-10169,-10176,-10168,-10135,-10128,-10276,-10095,-10250,-10052,-10055,-10031,-9998,-10019,-10005,-9970,-9966,-9923,-9889,-9862,-9824,-9818,-9767,-9756,-9723,-9719,-9706,-9723,-9755,-9884,-10061,-10244,-10408,-10512,-10594,-10631,-10674,-10663,-10656,-10647,-10647,-10597,-10602,-10599,-10598,-10578,-10592,-10584,-10598,-10576,-10560,-10531,-10525,-10512,-10497,-10505,-10510,-10519,-10534,-10515,-10567,-10531,-10604,-10635,-10726,-10467,-10439,-10431,-10533,-10382,-10338,-10306,-10292,-10242,-10220,-10208,-10195,-10158,-10146,-10135,-10114,-10118,-10103,-10103,-10103,-10286,-10070,-10051,-10030,-10035,-10018,-10011,-9991,-9950,-9937,-9929,-9905,-9892,-9878,-9839,-10048,-9941,-10000,-9884,-9755,-9699,-9686,-9651,-9798,-9677,-9796,-9980,-10183,-10342,-10476,-10566,-10724,-10666,-10708,-10718,-10723,-10722,-10692,-10661,-10695,-10669,-10658,-10671,-10682,-10700,-10695,-10688,-10671,-10648,-10629,-10622,-10595,-10591,-10563,-10567,-10568,-10585,-10585,-10588,-10585,-10560,-10551,-10541,-10539,-10508,-10497,-10461,-10430,-10410,-10372,-10360,-10473,-10470,-10371,-10281,-10258,-10227,-10212,-10199,-10173,-10153,-10143,-10121,-10120,-10081,-10089,-10044,-10045,-10035,-10009,-9986,-9970,-9933,-9919,-9907,-9884,-9851,-9830,-9799,-9775,-9736,-9701,-9657,-9631,-9622,-9614,-9644,-9794,-9988,-10364,-10482,-10567,-10624,-10652,-10653,-10651,-10641,-10625,-10608,-10591,-10563,-10519,-10546,-10538,-10537,-10531,-10535,-10484,-10505,-10476,-10431,-10444,-10420,-10434,-10551,-10419,-10587,-10582,-10493,-10660,-10423,-10473,-10391,-10471,-10458,-10306,-10418,-10329,-10221,-10340,-10172,-10132,-10114,-10088,-10068,-10026,-10000,-10094,-9972,-9970,-9948,-9917,-9901,-9888,-9868,-9907,-9855,-9834,-9821,-9828,-9809,-9781,-9741,-9676,-9616,-9573,-9521,-9476,-9421,-9374,-9341,-9346,-9293,-9245,-9267,-9298,-9488,-9710,-9958,-10105,-10239,-10322,-10341,-10355,-10356,-10315,-10297,-10249,-10217,-10195,-10162,-10109,-10060,-10043,-10000,-9985,-9942,-9901,-9917,-9902,-9929,-9925,-9957,-9947,-9930,-9943,-9951,-9962,-9962,-9934,-9940,-9921,-9873,-9854,-9843,-9824,-9786,-9762,-9750,-9691,-9663,-9639,-9635,-9615,-9636,-9624,-9631,-9600,-9609,-9613,-9614,-9614,-9585,-9577,-9555,-9540,-9519,-9497,-9481,-9482,-9487,-9488,-9456,-9426,-9416,-9382,-9347,-9306,-9290,-9256,-9231,-9168,-9112,-9082,-9075,-9119,-9262,-9508,-9788,-9984,-10150,-10234,-10314,-10345,-10344,-10321,-10319,-10294,-10241,-10192,-10164,-10124,-10095,-10076,-10079,-10074,-10040,-10036,-10001,-9981,-9922,-9926,-9945,-9912,-9909,-9905,-9923,-9908,-9893,-9901,-9886,-9882,-9855,-9821,-9766,-9739,-9674,-9647,-9619,-9563,-9538,-9489,-9466,-9429,-9392,-9368,-9559,-9332,-9301,-9446,-9540,-9371,-9231,-9214,-9212,-9217,-9198,-9178,-9150,-9123,-9105,-9108,-9069,-9023,-9000,-8961,-9023,-8896,-8880,-8835,-8821,-8774,-8755,-8722,-8677,-8637,-8686,-8797,-9023,-9290,-9595,-9831,-9947,-10045,-10113,-10131,-10113,-10094,-10034,-9976,-9924,-9871,-9811,-9789,-9752,-9730,-9721,-9716,-9677,-9651,-9608,-9575,-9561,-9541,-9503,-9489,-9497,-9515,-9505,-9507,-9501,-9487,-9450,-9452,-9395,-9362,-9331,-9292,-9259,-9210,-9162,-9131,-9101,-9045,-8998,-9008,-9002,-8938,-8973,-8950,-8930,-8923,-8904,-8883,-8900,-8897,-8902,-8890,-8871,-8871,-8859,-8842,-8849,-8833,-8811,-8770,-8775,-8727,-8720,-8714,-8662,-8622,-8621,-8602,-8615,-8713,-8921,-9155,-9425,-9652,-9796,-9857,-9925,-9946,-9934,-9922,-9853,-9794,-9733,-9670,-9594,-9538,-9495,-9488,-9457,-9424,-9383,-9351,-9329,-9330,-9321,-9330,-9360,-9368,-9384,-9367,-9384,-9403,-9403,-9379,-9349,-9321,-9287,-9270,-9221,-9186,-9135,-9090,-9045,-9008,-8995,-8981,-8936,-8935,-8904,-8900,-8876,-8849,-8838,-8841,-8826,-8830,-8953,-8791,-8781,-8777,-8739,-8760,-8766,-8737,-8738,-8718,-8696,-8660,-8635,-8616,-8576,-8553,-8572,-8670,-8879,-9122,-9390,-9611,-9757,-9861,-9901,-9940,-9956,-9888,-9838,-9808,-9759,-9736,-9678,-9653,-9667,-9689,-9658,-9643,-9614,-9606,-9562,-9568,-9567,-9577,-9585,-9580,-9620,-9624,-9603,-9593,-9591,-9569,-9547,-9509,-9476,-9420,-9389,-9363,-9321,-9285,-9231,-9206,-9150,-9127,-9096,-9078,-9053,-9035,-8997,-8997,-8983,-8985,-8968,-8967,-8941,-8939,-8930,-8900,-8898,-8881,-8876,-8838,-8802,-8806,-8774,-8769,-8755,-8749,-8734,-8705,-8773,-8912,-9135,-9370,-9616,-9782,-9907,-9984,-10002,-10035,-10023,-10008,-9974,-9933,-9927,-9902,-9876,-9866,-9855,-9867,-9846,-9842,-9823,-9789,-9783,-9732,-9720,-9725,-9704,-9690,-9686,-9695,-9684,-9701,-9694,-9668,-9640,-9615,-9587,-9546,-9499,-9454,-9430,-9375,-9338,-9319,-9289,-9240,-9227,-9180,-9162,-9161,-9149,-9130,-9131,-9113,-9114,-9095,-9088,-9088,-9056,-9053,-9046,-9027,-8999,-8990,-8946,-8956,-8910,-8875,-8862,-8849,-8824,-8824,-8794,-8788,-8810,-8904,-9097,-9344,-9581,-9742,-9875,-9950,-9996,-9993,-9981,-9963,-9943,-9922,-9848,-9800,-9786,-9761,-9745,-9743,-9716,-9706,-9670,-9652,-9581,-9586,-9559,-9527,-9538,-9546,-9549,-9555,-9574,-9549,-9554,-9523,-9502,-9473,-9465,-9414,-9367,-9339,-9300,-9257,-9220,-9173,-9150,-9127,-9153,-9085,-9061,-9040,-9031,-9016,-9016,-9009,-8981,-8978,-8980,-8979,-8959,-8971,-8934,-8932,-8915,-8903,-8883,-8857,-8822,-8814,-8798,-8765,-8762,-8737,-8708,-8729,-8739,-8834,-9030,-9281,-9509,-9705,-9801,-9874,-9904,-9920,-9907,-9894,-9875,-9817,-9796,-9744,-9714,-9720,-9680,-9682,-9659,-9641,-9628,-9597,-9572,-9564,-9539,-9556,-9554,-9551,-9568,-9588,-9552,-9574,-9575,-9563,-9526,-9496,-9488,-9440,-9414,-9361,-9328,-9297,-9264,-9236,-9209,-9207,-9187,-9178,-9156,-9274,-9118,-9113,-9123,-9106,-9106,-9095,-9106,-9263,-9107,-9116,-9107,-9099,-9072,-9061,-9058,-9140,-8996,-8982,-8970,-8939,-8929,-8914,-8891,-8932,-9016,-9166,-9400,-9621,-9788,-9898,-9968,-10011,-10047,-10023,-9993,-9977,-9940,-9929,-9901,-9859,-9848,-9837,-9835,-9831,-9820,-9795,-9766,-9740,-9700,-9698,-9661,-9625,-9620,-9639,-9651,-9637,-9623,-9604,-9584,-9574,-9546,-9519,-9492,-9468,-9429,-9378,-9328,-9319,-9271,-9274,-9224,-9186,-9171,-9155,-9138,-9109,-9119,-9085,-9075,-9058,-9005,-8997,-8976,-8967,-8958,-8957,-8948,-8929,-8916,-8906,-8914,-8880,-8868,-8856,-8836,-8820,-8804,-8778,-8752,-8700,-8696,-8700,-8679,-8785,-8942,-9194,-9416,-9641,-9780,-9861,-9908,-9948,-9960,-9923,-9901,-9859,-9831,-9786,-9754,-9743,-9717,-9722,-9714,-9716,-9698,-9666,-9692,-9577,-9540,-9552,-9519,-9509,-9492,-9608,-9531,-9496,-9498,-9490,-9472,-9444,-9435,-9461,-9345,-9315,-9290,-9262,-9219,-9193,-9149,-9146,-9099,-9071,-9072,-9074,-9033,-9043,-9019,-8992,-8980,-8963,-8958,-8943,-8915,-8902,-8883,-8882,-8831,-8839,-8805,-8819,-8802,-8772,-8757,-8755,-8735,-8715,-8670,-8659,-8648,-8615,-8592,-8587,-8537,-8505,-8481,-8444,-8457,-8551,-8711,-8946,-9220,-9439,-9608,-9709,-9752,-9783,-9784,-9769,-9716,-9676,-9618,-9581,-9531,-9498,-9469,-9462,-9449,-9417,-9401,-9377,-9338,-9316,-9275,-9270,-9241,-9275,-9251,-9257,-9240,-9222,-9209,-9212,-9206,-9161,-9150,-9112,-9071,-9045,-9015,-8991,-8957,-8918,-8893,-8871,-8846,-8804,-8790,-8796,-8791,-8787,-8767,-8762,-8741,-8753,-8724,-8728,-8710,-8693,-8665,-8652,-8650,-8609,-8636,-8587,-8547,-8539,-8529,-8487,-8491,-8490,-8529,-8451,-8423,-8408,-8371,-8344,-8322,-8323,-8363,-8291,-8266,-8293,-8322,-8395,-8580,-8841,-9069,-9279,-9441,-9545,-9590,-9616,-9588,-9560,-9513,-9429,-9377,-9317,-9252,-9227,-9220,-9199,-9164,-9152,-9148,-9089,-9089,-9034,-9036,-9041,-9057,-9075,-9092,-9102,-9101,-9095,-9077,-9070,-9050,-9029,-8977,-8959,-8935,-8914,-8876,-8838,-8821,-8787,-8761,-8744,-8718,-8708,-8664,-8670,-8673,-8650,-8637,-8614,-8621,-8585,-8581,-8602,-8573,-8556,-8536,-8514,-8506,-8500,-8500,-8486,-8482,-8450,-8432,-8432,-8413,-8396,-8382,-8359,-8337,-8315,-8303,-8281,-8257,-8259,-8221,-8205,-8259,-8341,-8558,-8824,-9049,-9263,-9438,-9525,-9570,-9583,-9564,-9539,-9497,-9423,-9382,-9311,-9296,-9270,-9237,-9233,-9230,-9240,-9194,-9200,-9142,-9103,-9091,-9080,-9081,-9080,-9085,-9180,-9107,-9115,-9090,-9094,-9062,-9062,-9035,-9051,-8971,-8948,-8901,-8901,-8859,-8839,-8790,-8799,-8754,-8726,-8726,-8728,-8705,-8692,-8674,-8653,-8632,-8617,-8617,-8596,-8606,-8568,-8565,-8538,-8552,-8533,-8512,-8486,-8480,-8451,-8438,-8430,-8403,-8390,-8358,-8360,-8322,-8311,-8271,-8302,-8281,-8241,-8219,-8213,-8214,-8212,-8352,-8521,-8793,-9019,-9231,-9397,-9519,-9576,-9568,-9584,-9554,-9543,-9492,-9434,-9399,-9358,-9315,-9308,-9308,-9301,-9307,-9287,-9275,-9255,-9231,-9218,-9198,-9207,-9241,-9236,-9251,-9245,-9238,-9201,-9218,-9227,-9209,-9190,-9151,-9136,-9103,-9058,-9036,-9027,-8990,-8955,-8927,-8892,-8860,-8860,-8849,-8854,-8845,-8851,-8814,-8789,-8766,-8774,-8749,-8741,-8743,-8724,-8730,-8714,-8787,-8691,-8697,-8653,-8655,-8640,-8619,-8619,-8705,-8546,-8541,-8530,-8507,-8502,-8466,-8500,-8401,-8432,-8488,-8675,-8883,-9129,-9335,-9483,-9560,-9609,-9637,-9635,-9627,-9595,-9559,-9513,-9458,-9468,-9429,-9421,-9413,-9417,-9395,-9384,-9358,-9369,-9325,-9340,-9359,-9349,-9357,-9385,-9406,-9394,-9405,-9410,-9390,-9369,-9354,-9433,-9355,-9477,-9308,-9304,-9240,-9270,-9253,-9217,-9198,-9176,-9159,-9223,-9134,-9132,-9122,-9110,-9086,-9065,-9082,-9055,-9037,-8999,-9023,-9032,-9026,-9002,-8993,-8991,-8949,-8943,-8932,-8889,-8886,-8845,-8930,-8797,-8766,-8764,-8765,-8780,-8884,-9053,-9243,-9501,-9560,-9671,-9740,-9814,-9837,-9830,-9852,-9835,-9845,-9790,-9755,-9808,-9724,-9720,-9706,-9710,-9681,-9713,-9680,-9809,-9639,-9649,-9634,-9635,-9634,-9638,-9737,-9660,-9650,-9652,-9622,-9620,-9611,-9610,-9719,-9547,-9525,-9494,-9448,-9445,-9417,-9366,-9427,-9328,-9269,-9276,-9235,-9197,-9208,-9184,-9200,-9154,-9132,-9111,-9111,-9100,-9092,-9094,-9274,-9193,-9032,-9102,-9216,-9134,-8971,-8958,-8923,-8907,-8869,-8838,-8818,-8820,-8795,-8759,-8776,-8769,-8835,-8997,-9230,-9457,-9627,-9754,-9935,-9894,-9957,-10055,-9945,-9946,-9927,-9887,-9878,-9875,-9855,-9864,-9841,-9863,-9840,-9878,-9854,-9845,-9825,-9789,-9761,-9753,-9748,-9872,-9760,-9747,-9747,-9755,-9747,-9734,-9743,-9716,-9703,-9679,-9659,-9620,-9602,-9569,-9564,-9526,-9518,-9483,-9458,-9434,-9402,-9369,-9378,-9371,-9356,-9348,-9330,-9319,-9295,-9288,-9244,-9257,-9266,-9225,-9222,-9214,-9362,-9155,-9181,-9190,-9123,-9117,-9075,-9054,-9032,-9128,-8981,-9056,-9154,-9027,-8996,-9160,-9361,-9541,-9725,-9973,-9927,-9981,-9995,-10023,-10021,-10015,-9997,-10034,-9960,-9933,-9912,-9897,-9874,-9896,-9891,-9860,-9858,-9829,-9813,-9785,-9759,-9746,-9749,-9768,-9772,-9757,-9779,-9763,-9768,-9754,-9762,-9736,-9718,-9710,-9665,-9645,-9593,-9569,-9551,-9524,-9502,-9476,-9478,-9442,-9397,-9390,-9378,-9350,-9366,-9340,-9334,-9332,-9329,-9279,-9252,-9263,-9269,-9242,-9235,-9208,-9193,-9211,-9187,-9179,-9157,-9109,-9099,-9068,-9028,-9014,-8998,-8960,-8978,-8967,-9066,-9225,-9446,-9639,-9795,-9895,-9972,-10017,-10046,-10025,-10038,-10023,-10010,-9974,-9968,-9936,-9910,-9890,-9909,-9929,-9891,-9881,-9887,-9878,-9846,-9861,-9856,-9859,-9869,-9861,-9895,-9901,-9871,-9899,-9886,-9855,-9866,-9832,-9794,-9785,-9774,-9765,-9711,-9700,-9655,-9627,-9592,-9558,-9537,-9531,-9526,-9498,-9505,-9476,-9444,-9436,-9421,-9407,-9387,-9417,-9385,-9377,-9356,-9348,-9335,-9338,-9310,-9286,-9251,-9228,-9200,-9186,-9163,-9130,-9106,-9124,-9144,-9438,-9636,-9824,-9966,-10058,-10126,-10145,-10188,-10193,-10158,-10172,-10136,-10143,-10137,-10113,-10114,-10125,-10114,-10137,-10116,-10107,-10095,-10083,-10069,-10063,-10066,-10052,-10059,-10051,-10046,-10050,-10057,-10057,-10040,-10042,-10022,-10015,-10014,-9960,-9946,-9932,-9895,-9893,-9846,-9828,-9798,-9777,-9770,-9736,-9703,-9701,-9675,-9642,-9631,-9621,-9601,-9585,-9606,-9582,-9580,-9569,-9542,-9520,-9530,-9501,-9498,-9474,-9471,-9436,-9416,-9401,-9374,-9352,-9309,-9282,-9240,-9258,-9296,-9411,-9586,-9780,-9938,-10082,-10191,-10255,-10302,-10314,-10306,-10274,-10284,-10248,-10239,-10237,-10230,-10235,-10221,-10240,-10244,-10232,-10221,-10206,-10186,-10158,-10154,-10154,-10132,-10130,-10137,-10125,-10111,-10130,-10138,-10130,-10088,-10094,-10064,-10052,-10021,-10006,-9965,-9946,-9929,-9893,-9853,-9838,-9809,-9797,-9756,-9740,-9733,-9688,-9686,-9648,-9665,-9638,-9613,-9598,-9594,-9577,-9560,-9558,-9524,-9509,-9513,-9495,-9488,-9458,-9444,-9409,-9378,-9358,-9319,-9289,-9261,-9251,-9206,-9188,-9183,-9219,-9325,-9516,-9745,-9923,-10048,-10131,-10205,-10256,-10278,-10255,-10260,-10229,-10213,-10179,-10264,-10234,-10209,-10351,-10311,-10178,-10100,-10065,-10053,-10041,-10024,-9992,-10013,-10017,-10023,-9993,-9999,-10014,-10006,-10005,-9998,-9975,-9963,-9938,-9899,-9877,-9834,-9809,-9748,-9724,-9720,-9687,-9656,-9624,-9614,-9581,-9565,-9536,-9540,-9522,-9497,-9494,-9518,-9449,-9458,-9472,-9449,-9444,-9417,-9411,-9397,-9382,-9360,-9342,-9306,-9303,-9270,-9215,-9194,-9191,-9165,-9160,-9202,-9351,-9542,-9757,-9907,-10029,-10159,-10201,-10236,-10256,-10254,-10215,-10207,-10177,-10152,-10123,-10108,-10112,-10083,-10079,-10071,-10046,-10028,-9987,-9981,-9979,-9977,-9977,-9980,-9996,-9995,-9981,-9978,-9969,-9986,-9962,-9920,-9910,-9888,-9880,-9845,-9803,-9782,-9725,-9702,-9686,-9674,-9630,-9631,-9601,-9582,-9572,-9534,-9520,-9520,-9526,-9478,-9474,-9466,-9455,-9459,-9450,-9405,-9413,-9392,-9373,-9334,-9325,-9316,-9277,-9263,-9231,-9354,-9187,-9156,-9152,-9136,-9141,-9218,-9376,-9608,-9822,-9977,-10078,-10190,-10237,-10247,-10287,-10283,-10243,-10234,-10212,-10223,-10170,-10168,-10184,-10169,-10190,-10161,-10163,-10152,-10137,-10097,-10087,-10064,-10059,-10046,-10040,-10060,-10063,-10016,-10041,-10037,-10006,-10010,-9983,-9989,-9951,-9922,-9897,-9852,-9823,-9811,-9754,-9722,-9694,-9695,-9660,-9639,-9608,-9601,-9557,-9573,-9565,-9529,-9509,-9519,-9495,-9489,-9480,-9457,-9463,-9428,-9417,-9406,-9374,-9352,-9321,-9305,-9266,-9257,-9224,-9207,-9177,-9157,-9217,-9323,-9551,-9741,-9934,-10062,-10146,-10218,-10246,-10235,-10247,-10236,-10217,-10221,-10141,-10121,-10097,-10102,-10099,-10089,-10088,-10047,-10042,-10014,-9979,-9976,-9970,-9972,-9960,-9960,-9965,-9962,-9958,-9947,-9942,-9935,-9936,-9887,-9878,-9831,-9815,-9769,-9716,-9692,-9660,-9642,-9592,-9580,-9548,-9549,-9524,-9507,-9509,-9457,-9462,-9418,-9409,-9398,-9402,-9373,-9363,-9377,