PPG=[-5219,-5221,-5178,-5144,-5128,-5121,-5072,-5036,-5004,-4980,-4968,-4949,-4946,-4908,-4927,-4929,-4891,-4899,-4866,-4867,-4844,-4829,-4808,-4782,-4759,-4716,-4665,-4592,-4502,-4438,-4362,-4301,-4229,-4157,-4034,-3913,-3775,-3568,-3418,-3227,-3010,-2748,-2550,-2394,-2244,-2136,-2182,-2280,-2352,-2393,-2448,-2531,-2599,-2696,-2829,-2922,-3016,-3093,-3192,-3275,-3368,-3460,-3465,-3523,-3536,-3521,-3542,-3568,-3579,-3611,-3621,-3619,-3624,-3614,-3631,-3626,-3643,-3676,-3692,-3720,-3741,-3756,-3780,-3767,-3754,-3739,-3737,-3696,-3658,-3654,-3663,-3637,-3657,-3642,-3647,-3667,-3637,-3572,-3510,-3424,-3336,-3230,-3127,-3036,-2923,-2841,-2762,-2498,-2285,-2155,-1968,-1813,-1644,-1493,-1504,-1429,-1445,-1394,-1383,-1219,-963,-582,-841,-1058,-1168,-1303,-1394,-1295,-1158,-1023,-843,-611,-673,-787,-891,-986,-1065,-1089,-1135,-1297,-1472,-1663,-1822,-1979,-2101,-2290,-2467,-2671,-2903,-3101,-3256,-3358,-3454,-3512,-3584,-3617,-3672,-3715,-3773,-3771,-3770,-3752,-3752,-3764,-3762,-3774,-3746,-3713,-3725,-3674,-3682,-3685,-3699,-3702,-3711,-3714,-3715,-3752,-3751,-3749,-3731,-3733,-3730,-3704,-3741,-3764,-3794,-3816,-3798,-3825,-3795,-3792,-3817,-3827,-3846,-3886,-3914,-3931,-3943,-3937,-3943,-3924,-3914,-3926,-3955,-3967,-4005,-4035,-4059,-4124,-4232,-4360,-4465,-4574,-4691,-4754,-4808,-4849,-4857,-4873,-4867,-4876,-4870,-7565,-7590,-7600,-7627,-7606,-7611,-7634,-7618,-7650,-7678,-7697,-7739,-7749,-7786,-7752,-7753,-7725,-7695,-7679,-7649,-7619,-7584,-7589,-7563,-7585,-7547,-7552,-7532,-7539,-7501,-7482,-7483,-7458,-7463,-7439,-7428,-7442,-7416,-7410,-7412,-7417,-7412,-7400,-7395,-7359,-7367,-7365,-7362,-7347,-7360,-7927,-7917,-7910,-7893,-7916,-7913,-7900,-7891,-7882,-7863,-7862,-7876,-7894,-7922,-7926,-7956,-7984,-7986,-7999,-8014,-8010,-8026,-8029,-8022,-8019,-8010,-8012,-7988,-7969,-7934,-7922,-7900,-7902,-7900,-7899,-7890,-7882,-7894,-7885,-7901,-7903,-7893,-7923,-7903,-735.6552,-8452,-8529,-8560,-8597,-8612,-8644,-8632,-8632,-8641,-8651,-8640,-8640,-8624,-8632,-8623,-8582,-8599,-8590,-8584,-8593,-8593,-8614,-8631,-8630,-8629,-8633,-8645,-8615,-8639,-8622,-8629,-8625,-8607,-8609,-8614,-8596,-8593,-8570,-8553,-8544,-8548,-8546,-8537,-8533,-8544,-8525,-8537,-8525,-8510,-8497,-8455,-8464,-8442,-8435,-8418,-8381,-8400,-8398,-8401,-8399,-8408,-8417,-8425,-8402,-8377,-8349,-8335,-8309,-8283,-8283,-8302,-8300,-8351,-8446,-8509,-8642,-8746,-8844,-8928,-9009,-9066,-9066,-9130,-9130,-9144,-9156,-9150,-9145,-9143,-9136,-9155,-9145,-9132,-9116,-9109,-9070,-9042,-9010,-8997,-8981,-8962,-8938,-8933,-8923,-8922,-8938,-8927,-8902,-8883,-8906,-8879,-8883,-8896,-8887,-8893,-8891,-8895,-8875,-8873,-8876,-8834,-8826,-8806,-8773,-8785,-8751,-8739,-8733,-8698,-8683,-8665,-8652,-8616,-8604,-8572,-8514,-8482,-8479,-8449,-8455,-8423,-8405,-8368,-8364,-8370,-8326,-8296,-8299,-8273,-8244,-8248,-8239,-8240,-8274,-8338,-8404,-8489,-8614,-8729,-8822,-8899,-9003,-9078,-9132,-9175,-9180,-9214,-9213,-9224,-9236,-9224,-9219,-9229,-9235,-9220,-9192,-9166,-9160,-9129,-9097,-9108,-9085,-9076,-9114,-9080,-9087,-9058,-9074,-9071,-9062,-9078,-9068,-9090,-9068,-9066,-9057,-9062,-9065,-9070,-9062,-9052,-9062,-9047,-9047,-9038,-9000,-9031,-9018,-9005,-8983,-8978,-8942,-8918,-8918,-8908,-8889,-8877,-8871,-8873,-8861,-8841,-8842,-8842,-8826,-8804,-8771,-8741,-8753,-8727,-8729,-8701,-8704,-8697,-8702,-8732,-8805,-8876,-8970,-9089,-9171,-9240,-9344,-9409,-9423,-9466,-9468,-9478,-9487,-9481,-9508,-9497,-9515,-9511,-9506,-9491,-9479,-9453,-9430,-9431,-9407,-9392,-9389,-9372,-9395,-9383,-9414,-9402,-9413,-9390,-9395,-9357,-9346,-9334,-9325,-9347,-9295,-9275,-9254,-9245,-9245,-9232,0,0,0,0,0,0,0,0,0,0,0,0,0,0,0,0,0,0,0,0,0,0,0,0,0,0,0,0,0,-8198,-7937,-8141,-8138,-8096,-8097,-11623,-11603,-11577,-11559,-11554,-11526,-11526,-11495,-11440,-11426,-11392,-11411,-11394,-11415,-11406,-11068,-11055,-11042,-11036,-11018,-10976,-10984,-10930,-10900,-10903,-10885,-10851,-10845,-10838,-10829,-10821,-10801,-10776,-10771,-10743,-10697,-10723,-10684,-10657,-10643,-10648,-10653,-10667,-10767,-10926,-11147,-11348,-11527,-11672,-11766,-11830,-11869,-11873,-11878,-11870,-11846,-11817,-11773,-11764,-11745,-11730,-11710,-11685,-11663,-11659,-11623,-11618,-11579,-11601,-11609,-11596,-11596,-11600,-11601,-11604,-11611,-11593,-11579,-11575,-11571,-11544,-11526,-11489,-11465,-11447,-11391,-11367,-11355,-11319,-11320,-11282,-11267,-11267,-11243,-11240,-11231,-11207,-11201,-11184,-11183,-11159,-11158,-11191,-11167,-11154,-11147,-11154,-11157,-11116,-11117,-11097,-11097,-11056,-11054,-11027,-11007,-10970,-10959,-10951,-10916,-10900,-10898,-10923,-10949,-11053,-11204,-11366,-11551,-11702,-11827,-11937,-12031,-12065,-12093,-12099,-12099,-12080,-12041,-11994,-11948,-11919,-11887,-11870,-11828,-11788,-11770,-11743,-11704,-11712,-11705,-11694,-11700,-11700,-11723,-11730,-11715,-11728,-11712,-11709,-11692,-11642,-11633,-11612,-11575,-11535,-11515,-11473,-11460,-11430,-11385,-11365,-11366,-11338,-11331,-11309,-11283,-11289,-11249,-11243,-11235,-11218,-11199,-11179,-11169,-11171,-11147,-11137,-11111,-11086,-11092,-11075,-11078,-11059,-11035,-11011,-11009,-10986,-10976,-10912,-10894,-10870,-10857,-10856,-10886,-10969,-11116,-11306,-11483,-11594,-11714,-11771,-11817,-11862,-11851,-11849,-11803,-11760,-11723,-11674,-11642,-11613,-11599,-11599,-11554,-11541,-11548,-11516,-11506,-11484,-11494,-11525,-11517,-11535,-11585,-11590,-11624,-11633,-11645,-11629,-11623,-11586,-11600,-11580,-11558,-11548,-11490,-11458,-11429,-11384,-11358,-11339,-11307,-11286,-11277,-11245,-11251,-11239,-11230,-11220,-11226,-11229,-11227,-11225,-11220,-11212,-11194,-11198,-11210,-11198,-11174,-11186,-11172,-11167,-11146,-11136,-11115,-11093,-11068,-11070,-11048,-11046,-11045,-11110,-11194,-11286,-11441,-11618,-11786,-11931,-12047,-12120,-12184,-12196,-12202,-12188,-12196,-12152,-12128,-12086,-12041,-12030,-11988,-11971,-11957,-11930,-11893,-11914,-11901,-11907,-11902,-11924,-11945,-11939,-11977,-11966,-11980,-11975,-11966,-11951,-11942,-11930,-11906,-11868,-11843,-11829,-11766,-11730,-11713,-11684,-11656,-11629,-11604,-11581,-11563,-11535,-11523,-11514,-11476,-11478,-11474,-11460,-11440,-11438,-11413,-11426,-11398,-11389,-11410,-11394,-11383,-11360,-11352,-11333,-11305,-11277,-11261,-11266,-11240,-11224,-11225,-11259,-11322,-11455,-11625,-11781,-11945,-12097,-12219,-12281,-12347,-12373,-12374,-12368,-12338,-12303,-12258,-12225,-12168,-12144,-12114,-12074,-12045,-11974,-11968,-11955,-11963,-11962,-11976,-11962,-11984,-12001,-12004,-12015,-12029,-12032,-11995,-11968,-11974,-11933,-11918,-11889,-11830,-11818,-11761,-11758,-11717,-11693,-11673,-11658,-11645,-11615,-11614,-11592,-11582,-11577,-11559,-11522,-11544,-11498,-11485,-11467,-11461,-11437,-11409,-11410,-11407,-11370,-11351,-11337,-11323,-11287,-11293,-11252,-11256,-11254,-11305,-11385,-11519,-11699,-11871,-12051,-12189,-12296,-12360,-12431,-12471,-12455,-12438,-12411,-12400,-12350,-12330,-12298,-12243,-12252,-12192,-12139,-12125,-12102,-12105,-12082,-12087,-12103,-12123,-12152,-12146,-12160,-12179,-12184,-12188,-12180,-12179,-12164,-12154,-12104,-12119,-12058,-12060,-12033,-11986,-11980,-11965,-11931,-11923,-11927,-11922,-11901,-11910,-11907,-11896,-11889,-11872,-11862,-11848,-11825,-11815,-11788,-11777,-11767,-11741,-11700,-11693,-11660,-11631,-11611,-11579,-11567,-11580,-11621,-11726,-11876,-12040,-12238,-12383,-12528,-12631,-12702,-12756,-12767,-12774,-12779,-12763,-12772,-12738,-12725,-12723,-12713,-12714,-12697,-12693,-12679,-12661,-12646,-12621,-12619,-12603,-12629,-12628,-12618,-12622,-12641,-12626,-12625,-12613,-12594,-12564,-12535,-12507,-12480,-12452,-12400,-12366,-12344,-12325,-12277,-12282,-12259,-12239,-12221,-12202,-12188,-12187,-12150,-12163,-12150,-12124,-12131,-12143,-12128,-12133,-12128,-12075,-12052,-12036,-11991,-11941,-11904,-11853,-11814,-11809,-11802,-11764,-11761,-11800,-11905,-12035,-12223,-12402,-12557,-12691,-12791,-12858,-12920,-12958,-12967,-12960,-12973,-12976,-12960,-12950,-12984,-12984,-12987,-12984,-12966,-12961,-12948,-12923,-12915,-12919,-12909,-12912,-12910,-12916,-12893,-12917,-12892,-12896,-12860,-12867,-12819,-12821,-12812,-12789,-12744,-12716,-12703,-12656,-12647,-12629,-12613,-12573,-12551,-12531,-12516,-12488,-12450,-12437,-12431,-12423,-12408,-12382,-12373,-12367,-12357,-12362,-12352,-12342,-12345,-12335,-12296,-12270,-12225,-12207,-12152,-12113,-12087,-12050,-12009,-11964,-11971,-11973,-12046,-12206,-12359,-12530,-12678,-12833,-12922,-12987,-13018,-13053,-13043,-13065,-13058,-13037,-13056,-13045,-13035,-13035,-13015,-13006,-13012,-12975,-12965,-12928,-12933,-12910,-12877,-12879,-12886,-12864,-12871,-12872,-12863,-12837,-12821,-12792,-12768,-12721,-12694,-12648,-12620,-12573,-12532,-12525,-12479,-12464,-12405,-12420,-12389,-12374,-12339,-12329,-12311,-12300,-12267,-12286,-12245,-12250,-12243,-12227,-12209,-12220,-12212,-12185,-12171,-12144,-12131,-12104,-12101,-12090,-12070,-12026,-12011,-11988,-11974,-11931,-11913,-11896,-11890,-11884,-11911,-11964,-12118,-12301,-12472,-12665,-12805,-12910,-12986,-13043,-13062,-13062,-13066,-13072,-13038,-12997,-12962,-12953,-12930,-12938,-12922,-12904,-12884,-12844,-12834,-12830,-12805,-12791,-12796,-12796,-12804,-12790,-12790,-12824,-12850,-12821,-12799,-12792,-12764,-12746,-12702,-12658,-12612,-12572,-12538,-12482,-12462,-12447,-12430,-12427,-12412,-12409,-12393,-12388,-12368,-12352,-12342,-12320,-12284,-12274,-12240,-12234,-12234,-12228,-12192,-12202,-12197,-12196,-12176,-12182,-12150,-12144,-12132,-12088,-13259,-13255,-13250,-13232,-13214,-13178,-13171,-13130,-13115,-13092,-13086,-13119,-13107,-13137,-13146,-13167,-13171,-13172,-13159,-13151,-13148,-13136,-13110,-13077,-13080,-13044,-13020,-12971,-12917,-12918,-12883,-12846,-12839,-12803,-12779,-12777,-12746,-12716,-12693,-12698,-12662,-12636,-126235.65515,-13103,-13092,-13051,-13065,-13035,-13027,-13011,-12976,-12961,-12934,-12900,-12892,-12864,-12845,-12838,-12813,-12780,-12785,-12772,-12768,-12789,-12736,-12745,-12739,-12728,-12721,-12712,-12680,-12669,-12624,-12601,-12571,-12536,-12515,-12473,-12431,-12388,-12348,-12331,-12344,-12411,-12546,-12703,-12889,-13061,-13179,-13298,-13383,-13430,-13433,-13434,-13428,-13433,-13414,-13411,-13369,-13357,-13338,-13327,-13326,-13287,-13260,-13209,-13166,-13172,-13160,-13154,-13156,-13140,-13149,-13150,-13171,-13167,-13159,-13139,-13113,-13107,-13070,-13037,-13009,-12964,-12947,-12888,-12832,-12809,-12783,-12749,-12725,-12685,-12673,-12652,-12647,-12612,-12608,-12599,-12574,-12563,-12533,-12521,-12518,-12477,-12462,-12443,-12417,-12391,-12378,-12375,-12326,-12305,-12286,-12240,-12227,-12218,-12195,-12149,-12129,-12100,-12079,-12045,-12044,-12102,-12167,-12345,-12564,-12787,-12934,-13110,-13198,-13270,-13347,-13341,-13365,-13368,-13345,-13327,-13343,-13336,-13329,-13326,-13335,-13324,-13313,-13294,-13256,-13243,-13214,-13187,-13179,-13150,-13153,-13156,-13152,-13139,-13146,-13134,-13116,-13104,-13095,-13066,-13056,-13008,-12964,-12945,-12878,-12824,-12783,-12732,-12726,-12678,-12665,-12609,-12605,-12593,-12563,-12527,-12504,-12485,-12481,-12442,-12409,-12400,-12378,-12356,-12326,-12317,-12320,-12295,-12293,-12308,-12269,-12251,-12249,-12216,-12206,-12189,-12168,-12144,-12115,-12093,-12075,-12050,-12027,-11957,-11975,-11950,-11948,-11949,-12022,-12163,-12339,-12561,-12744,-12914,-13024,-13115,-13155,-13209,-13217,-13210,-13197,-13169,-13175,-13159,-13145,-13131,-13103,-13097,-13074,-13037,-12977,-12943,-12914,-12876,-12849,-12843,-12833,-12814,-12828,-12831,-12828,-12826,-12805,-12795,-12781,-12761,-12740,-12661,-12623,-12578,-12557,-12510,-12490,-12457,-12421,-12390,-12390,-12351,-12336,-12323,-12301,-12284,-12286,-12262,-12225,-12229,-12206,-12175,-12148,-12123,-12110,-12095,-12060,-12050,-12032,-11994,-11987,-11969,-11945,-11920,-11915,-11892,-11858,-11850,-11826,-11791,-11773,-11754,-11709,-11689,-11697,-11681,-11691,-11719,-11801,-11958,-12181,-12357,-12563,-12709,-12819,-12892,-12942,-12960,-12977,-12968,-12965,-12918,-12907,-12864,-12841,-12832,-12823,-12772,-12765,-12705,-12683,-12645,-12638,-12647,-12644,-12661,-12655,-12661,-12660,-12688,-12667,-12688,-12655,-12639,-12611,-12590,-12550,-12504,-12466,-12432,-12390,-12382,-12343,-12299,-12283,-12275,-12257,-12228,-12210,-12225,-12188,-12183,-12174,-12139,-12132,-12116,-12097,-12077,-12048,-12063,-12050,-12025,-11996,-11986,-11964,-11940,-11942,-11917,-11895,-11881,-11864,-11837,-11813,-11796,-11787,-11744,-11722,-11691,-11692,-11670,-11655,-11684,-11790,-11943,-12138,-12333,-12513,-12660,-12786,-12866,-12918,-12958,-12979,-12975,-12972,-12949,-12936,-12928,-12901,-12889,-12894,-12890,-12863,-12870,-12825,-12802,-12802,-12791,-12784,-12757,-12753,-12744,-12755,-12769,-12762,-12771,-12746,-12719,-12713,-12689,-12670,-12670,-12635,-12609,-12570,-12519,-12502,-12466,-12399,-12372,-12334,-12326,-12326,-12298,-12295,-12274,-12270,-12222,-12230,-12202,-12196,-12176,-12135,-12116,-12092,-12084,-12047,-12049,-12019,-12001,-11995,-11987,-11974,-11947,-11936,-11895,-11886,-11875,-11863,-11843,-11817,-11811,-11789,-11766,-11760,-11786,-11861,-11984,-12176,-12363,-12518,-12672,-12773,-12869,-12932,-12952,-12959,-12967,-12980,-12969,-12954,-12951,-12931,-12928,-12930,-12932,-12911,-12865,-12824,-12826,-12791,-12786,-12785,-12778,-12782,-12781,-12773,-12800,-12811,-12814,-12794,-12777,-12773,-12764,-12736,-12696,-12688,-12658,-12596,-12578,-12558,-12518,-12495,-12467,-12409,-12407,-12375,-12346,-12357,-12342,-12306,-12286,-12305,-12279,-12275,-12262,-12222,-12225,-12181,-12192,-12159,-12165,-12113,-12106,-12092,-12075,-12037,-12028,-11988,-11976,-11939,-11914,-11862,-11854,-11842,-11817,-11811,-11845,-11928,-12076,-12288,-12466,-12641,-12768,-12860,-12954,-13005,-13009,-13028,-13021,-13002,-12977,-12966,-12955,-12937,-12908,-12892,-12888,-12876,-12828,-12797,-12782,-12776,-12764,-12772,-12779,-12778,-12792,-12807,-12813,-12801,-12808,-12789,-12770,-12745,-12723,-12687,-12681,-12635,-12580,-12576,-12541,-12504,-12467,-12426,-12392,-12400,-12381,-12361,-12352,-12339,-12310,-12308,-12283,-12283,-12295,-12261,-12241,-12230,-12232,-12197,-12194,-12165,-12136,-12122,-12092,-12056,-12029,-12000,-11970,-11946,-11918,-11887,-11876,-11847,-11896,-11963,-12123,-12321,-12510,-12648,-12786,-12903,-12968,-13013,-13056,-13065,-13087,-13075,-13033,-13029,-13016,-12995,-12971,-12978,-12973,-12942,-12936,-12906,-12893,-12861,-12866,-12846,-12852,-12851,-12859,-12870,-12868,-12884,-12859,-12854,-12840,-12832,-12802,-12791,-12770,-12724,-12704,-12678,-12643,-12603,-12575,-12543,-12521,-12514,-12482,-12487,-12477,-12443,-12438,-12424,-12418,-12395,-12403,-12388,-12369,-12363,-12363,-12350,-12332,-12318,-12301,-12264,-12246,-12214,-12189,-12176,-12153,-12119,-12089,-12042,-12009,-12003,-12075,-12167,-12364,-12520,-12686,-12854,-12946,-13041,-13118,-13177,-13192,-13201,-13197,-13174,-13162,-13175,-13165,-13170,-13162,-13159,-13145,-13112,-13086,-13067,-13038,-13032,-12996,-12997,-13006,-12983,-12987,-13011,-12996,-13006,-12992,-12988,-12961,-12953,-12931,-12916,-12877,-12834,-12811,-12773,-12737,-12714,-12685,-12675,-12617,-12610,-12594,-12562,-12547,-12530,-12527,-12491,-12463,-12453,-12436,-12420,-12408,-12379,-12379,-12347,-12336,-12318,-12289,-12262,-12226,-12197,-12194,-12143,-12120,-12099,-12057,-12027,-12019,-11980,-11961,-11968,-12021,-12131,-12301,-12483,-12645,-12812,-12931,-13022,-13093,-13141,-13171,-13176,-13140,-13147,-13152,-13147,-13105,-13123,-13116,-13100,-13092,-13050,-13009,-12980,-12942,-12915,-12905,-12908,-12924,-12914,-12920,-12940,-12924,-12932,-12921,-12914,-12883,-12879,-12859,-12835,-12772,-12757,-12711,-12699,-12668,-12618,-12614,-12597,-12600,-12579,-12565,-12551,-12541,-12517,-12522,-12515,-12489,-12471,-12465,-12462,-12468,-12468,-12416,-12444,-12426,-12407,-12382,-12339,-12323,-12310,-12291,-12246,-12233,-12204,-12165,-12152,-12148,-12171,-12256,-12367,-12520,-12651,-12800,-12926,-13026,-13100,-13175,-13193,-13244,-13244,-13244,-13243,-13218,-13204,-13201,-13193,-13196,-13184,-13163,-13129,-13131,-13093,-13080,-13060,-13060,-13065,-13069,-13086,-13088,-13093,-13093,-13087,-13084,-13059,-13049,-13038,-13021,-12992,-12965,-12943,-12922,-12895,-12857,-12858,-12822,-12823,-12807,-12807,-12795,-12791,-12777,-12761,-12764,-12770,-12761,-12766,-12772,-12763,-12760,-12764,-12760,-12771,-12758,-12763,-12738,-12738,-12724,-12729,-12708,-12705,-12695,-12698,-12710,-12765,-12837,-12941,-13070,-13200,-13353,-13465,-13571,-13669,-13725,-13800,-13836,-13846,-13863,-13864,-13909,-13884,-13882,-13883,-13878,-13853,-13841,-13838,-13832,-13819,-13824,-13824,-13832,-13859,-13838,-13890,-13892,-13919,-13918,-13922,-13945,-13952,-13911,-13928,-13921,-13909,-13877,-13847,-13841,-13825,-13803,-13791,-13756,-13741,-13694,-13704,-13677,-13674,-13655,-13640,-13637,-13612,-13593,-13578,-13583,-13571,-13581,-13553,-13555,-13545,-13536,-13515,-13494,-13475,-13444,-13442,-13453,-13415,-13392,-13398,-13403,-13400,-13447,-13523,-13642,-13774,-13931,-14052,-14193,-14290,-14373,-14451,-14481,-14495,-14509,-14510,-14485,-14495,-14469,-14474,-14449,-14466,-14437,-14431,-14420,-14388,-14378,-14367,-14342,-14361,-14351,-14366,-14388,-14380,-14381,-14384,-14373,-14359,-14346,-14335,-14331,-14293,-14282,-14262,-14221,-14223,-14189,-14172,-14132,-14131,-14084,-14079,-14043,-14028,-14004,-13974,-13957,-13929,-13932,-13883,-13896,-13860,-13851,-13832,-13779,-13777,-13754,-13724,-13709,-13686,-13665,-13644,-13611,-13582,-13552,-13552,-13511,-13514,-13530,-13562,-13657,-13769,-13903,-14055,-14196,-14313,-14437,-14510,-14557,-14576,-14573,-14553,-14554,-14553,-14497,-14465,-14435,-14400,-14404,-14371,-14331,-14293,-14268,-14256,-14259,-14235,-14244,-14235,-14243,-14247,-14243,-14263,-14264,-14252,-14262,-14248,-14223,-14205,-14178,-14168,-14132,-14114,-14087,-14061,-14033,-14012,-14015,-13980,-13970,-13967,-13927,-13910,-13918,-13921,-13911,-13883,-13865,-13840,-13824,-13804,-13779,-13778,-13760,-13733,-13719,-13667,-13643,-13583,-13586,-13552,-13528,-13545,-13601,-13697,-13820,-13969,-14088,-14220,-14325,-14412,-14445,-14505,-14524,-14506,-14521,-14508,-14495,-14448,-14439,-14408,-14383,-14382,-14331,-14323,-14271,-14250,-14255,-14247,-14240,-14224,-14254,-14262,-14262,-14261,-14277,-14282,-14259,-14251,-14224,-14179,-14152,-14140,-14121,-14059,-14036,-14014,-13975,-13961,-13917,-13895,-13903,-13879,-13843,-13828,-13816,-13792,-13799,-13783,-13779,-13770,-13766,-13757,-13744,-13730,-13718,-13698,-13674,-13653,-13616,-13605,-13592,-13618,-13659,-13750,-13860,-13984,-14114,-14228,-14362,-14436,-14488,-14538,-14555,-14548,-14562,-14538,-14555,-14508,-14520,-14499,-14487,-14476,-14461,-14419,-14411,-14399,-14393,-14392,-14356,-14385,-14368,-14386,-14412,-14407,-14399,-14414,-14397,-14360,-14358,-14323,-14287,-14256,-14216,-14195,-14171,-14144,-14094,-14054,-14029,-13985,-13953,-13939,-13899,-13879,-13865,-13831,-13813,-13795,-13770,-13745,-13745,-13717,-13703,-13693,-13666,-13678,-13651,-13632,-13636,-13618,-13653,-13677,-13778,-13900,-14027,-14184,-14328,-14449,-14572,-14658,-14721,-14762,-14796,-14786,-14789,-14771,-14767,-14753,-14741,-14749,-14743,-14727,-14692,-14670,-14638,-14617,-14584,-14572,-14553,-14544,-14546,-14534,-14513,-14508,-14511,-14493,-14498,-14457,-14475,-14452,-14435,-14410,-14401,-14359,-14330,-14293,-14272,-14270,-14244,-14221,-14206,-14190,-14158,-14142,-14128,-14108,-14076,-14058,-14058,-14042,-14014,-13983,-13975,-13944,-13916,-14013,-14004,-13976,-13937,-13904,-13885,-13834,-13814,-13820,-13794,-13776,-13805,-13850,-13959,-14065,-14196,-14343,-14455,-14570,-14699,-14746,-14815,-14824,-14831,-14804,-14781,-14780,-14732,-14718,-14700,-14696,-14684,-14647,-14627,-14592,-14587,-14585,-14585,-14583,-14594,-14583,-14589,-14596,-14594,-14599,-14600,-14581,-14575,-14574,-14549,-14528,-14483,-14483,-14463,-14405,-14397,-14359,-14323,-14331,-14291,-14273,-14242,-14223,-14204,-14174,-14157,-14130,-14106,-14081,-14055,-14043,-14035,-14020,-13987,-13948,-13945,-13909,-13894,-13865,-13843,-13813,-13789,-13785,-13748,-13730,-13707,-13671,-13688,-13731,-13904,-14061,-14203,-14349,-14451,-14558,-14629,-14699,-14731,-14753,-14749,-14716,-14710,-14670,-14651,-14611,-14613,-14577,-14558,-14496,-14475,-14455,-14443,-14428,-14427,-14422,-14402,-14418,-14421,-14445,-14448,-14457,-14420,-14431,-14413,-14375,-14376,-14359,-14316,-14290,-14272,-14256,-14234,-14183,-14164,-14151,-14097,-14094,-14080,-14030,-14000,-14006,-13959,-13927,-13917,-13873,-13860,-13815,-13783,-13782,-13743,-13739,-13718,-13699,-13656,-13650,-13611,-13580,-13555,-13533,-13522,-13496,-13467,-13429,-13421,-13434,-13472,-13569,-13703,-13824,-13969,-14110,-14251,-14345,-14435,-14466,-14504,-14504,-14486,-14488,-14461,-14438,-14423,-14408,-14372,-14356,-14339,-14295,-14263,-14257,-14249,-14215,-14207,-14204,-14225,-14234,-14235,-14230,-14195,-14200,-14237,-14202,-14188,-14162,-14146,-14093,-14071,-14054,-14029,-13982,-13945,-13937,-13895,-13898,-13870,-13848,-13816,-13792,-13775,-13748,-13727,-13731,-13690,-13676,-13669,-13650,-13637,-13637,-13606,-13593,-13565,-13536,-13517,-13506,-13473,-13439,-13439,-13403,-13376,-13333,-13313,-13288,-13255,-13228,-13200,-13229,-13265,-13334,-13476,-13603,-13729,-13881,-14013,-14087,-14165,-14232,-14268,-14296,-14274,-14256,-14237,-14207,-14205,-14177,-14153,-14160,-14098,-14070,-14039,-14027,-14023,-14003,-14007,-14015,-14019,-14032,-14029,-14032,-14025,-14010,-13985,-13983,-13981,-13948,-13928,-13888,-13857,-13822,-13806,-13758,-13734,-13699,-13667,-13621,-13612,-13590,-13563,-13539,-13531,-13494,-13476,-13458,-13424,-13409,-13396,-13360,-13353,-13349,-13324,-13307,-13282,-13267,-13241,-13232,-13192,-13168,-13122,-13118,-13084,-13042,-13024,-13000,-12970,-12972,-13000,-13036,-13142,-13277,-13392,-13545,-13675,-13806,-13870,-13954,-14011,-14021,-14018,-14015,-14006,-13995,-13970,-13962,-13935,-13910,-13880,-13853,-13816,-13802,-13798,-13799,-13789,-13779,-13791,-13812,-13826,-13839,-13832,-13836,-13851,-13834,-13820,-13802,-13776,-13782,-13726,-13705,-13677,-13669,-13626,-13615,-13570,-13565,-13538,-13526,-13472,-13469,-13455,-13438,-13394,-13384,-13378,-13350,-13311,-13321,-13297,-13257,-13244,-13229,-13207,-13157,-13162,-13137,-13112,-13051,-13040,-12995,-12955,-12943,-12929,-12887,-12895,-12920,-12964,-13077,-13191,-13334,-13462,-13589,-13701,-13795,-13881,-13947,-13966,-13986,-13975,-13963,-13953,-13947,-13926,-13915,-13901,-13876,-13861,-13845,-13832,-13845,-13856,-13847,-13860,-13866,-13878,-13903,-13911,-13928,-13930,-13947,-13926,-13943,-13929,-13947,-13927,-13911,-13891,-13882,-13863,-13845,-13822,-13806,-13787,-13764,-13759,-13732,-13715,-13707,-13698,-13675,-13683,-13675,-13656,-13651,-13659,-13644,-13636,-13609,-13609,-13607,-13570,-13579,-13553,-13530,-13517,-13507,-13460,-13468,-13460,-13445,-13500,-13598,-13702,-13839,-13987,-14146,-14257,-14388,-14454,-14510,-14581,-14607,-14621,-14629,-14626,-14629,-14623,-14629,-14621,-14625,-14599,-14574,-14580,-14573,-14576,-14559,-14562,-14587,-14595,-14618,-14607,-14607,-14635,-14639,-14617,-14613,-14609,-14607,-14606,-14569,-14571,-14528,-14489,-14480,-14471,-14451,-14417,-14411,-14410,-14368,-14360,-14360,-14352,-14358,-14320,-14299,-14296,-14287,-14298,-14271,-14270,-14249,-14220,-14247,-14222,-14172,-14167,-14150,-14138,-14104,-14090,-14086,-14096,-14156,-14222,-14353,-14477,-14617,-14748,-14877,-14992,-15070,-15134,-15166,-15197,-15184,-15181,-15187,-15152,-15143,-15137,-15109,-15068,-15043,-15022,-15001,-14995,-14967,-14966,-14975,-14979,-14969,-14991,-14989,-14972,-14987,-14985,-14977,-14969,-14947,-14924,-14907,-14877,-14847,-14800,-14780,-14739,-14721,-14683,-14662,-14632,-14610,-14581,-14556,-14545,-14522,-14492,-14493,-14478,-14459,-14427,-14450,-14408,-14424,-14403,-14392,-14354,-14354,-14332,-14305,-14267,-14266,-14248,-14236,-14189,-14204,-14188,-14220,-14273,-14392,-14502,-14649,-14813,-14928,-15056,-15177,-15264,-15312,-15349,-15363,-15136,-15131,-15119,-15118,-15069,-15066,-15051,-15026,-14982,-14963,-14933,-14903,-14889,-14911,-14901,-14909,-14895,-14897,-14914,-14923,-14928,-14938,-14904,-14907,-14879,-14860,-14849,-14803,-14809,-14762,-14740,-14689,-14673,-14634,-14623,-14603,-14596,-14578,-14564,-14537,-14515,-14515,-14498,-14491,-14482,-14467,-14446,-14407,-14399,-14381,-14360,-14348,-14324,-14299,-14275,-14245,-14213,-14205,-14176,-14143,-14163,-14226,-14319,-14415,-14548,-14691,-14827,-14956,-15043,-15135,-15178,-15211,-15226,-15247,-15235,-15212,-15211,-15215,-15189,-15178,-15156,-15104,-15064,-15047,-15016,-15012,-14989,-14984,-14988,-14986,-14995,-15006,-15001,-14976,-14970,-14951,-14931,-14906,-14880,-14853,-14827,-14795,-14783,-14732,-14711,-14674,-14664,-14621,-14599,-14568,-14538,-14525,-14491,-14477,-14472,-14444,-14417,-14413,-14401,-14383,-14357,-14342,-14332,-14307,-14301,-14280,-14273,-14245,-14208,-14205,-14167,-14147,-14127,-14107,-14078,-14065,-14043,-14033,-14030,-14063,-14163,-14259,-14399,-14564,-14731,-14889,-14986,-15075,-15166,-15204,-15280,-15285,-15292,-15299,-15266,-15261,-15292,-15273,-15265,-15250,-15229,-15185,-15145,-15143,-15105,-15088,-15068,-15057,-15040,-15050,-15057,-15021,-15020,-15008,-15014,-14962,-14953,-14921,-14898,-14866,-14838,-14804,-14790,-14756,-14714,-14705,-14658,-14637,-14619,-14600,-14578,-14549,-14528,-14523,-14497,-14475,-14455,-14426,-14414,-14402,-14364,-14354,-14329,-14313,-14287,-14262,-14251,-14242,-14196,-14188,-14187,-14149,-14141,-14115,-14104,-14054,-14023,-14011,-13999,-13970,-13949,-13924,-13917,-13943,-13993,-14077,-14199,-14336,-14474,-14632,-14790,-14878,-14968,-15020,-15060,-15075,-15095,-15079,-15079,-15043,-15070,-15066,-15064,-15072,-15047,-15007,-14981,-14954,-14937,-14919,-14903,-14903,-14891,-14881,-14875,-14869,-14852,-14868,-14856,-14822,-14799,-14789,-14748,-14717,-14683,-14664,-14631,-14603,-14551,-14527,-14489,-14472,-14461,-14414,-14400,-14383,-14332,-14332,-14305,-14294,-14281,-14263,-14243,-14224,-14207,-14175,-14163,-14159,-14126,-14092,-14067,-14071,-14034,-14020,-14020,-13979,-13963,-13940,-13925,-13905,-13874,-13858,-13836,-13809,-13777,-13758,-13729,-13694,-13675,-13645,-13677,-13702,-13744,-13850,-13976,-14131,-14278,-14428,-14558,-14654,-14735,-14782,-14815,-14811,-14826,-14811,-14800,-14798,-14789,-14772,-14770,-14778,-14730,-14731,-14697,-14689,-14671,-14672,-14678,-14704,-14691,-14705,-14736,-14718,-14710,-14726,-14728,-14696,-14660,-14638,-14611,-14587,-14541,-14539,-14488,-14470,-14461,-14463,-14418,-14411,-14390,-14344,-14331,-14330,-14312,-14312,-14285,-14262,-14246,-14241,-14232,-14217,-14178,-14132,-14148,-14116,-14096,-14063,-14052,-14027,-14009,-14003,-13971,-13945,-13917,-13894,-13871,-13810,-13814,-13783,-13753,-13757,-13724,-13750,-13777,-13861,-13970,-14127,-14272,-14419,-14572,-14706,-14788,-14866,-14913,-14935,-14955,-14964,-14946,-14950,-14951,-14929,-14950,-14942,-14937,-14923,-14871,-14844,-14853,-14797,-14804,-14802,-14791,-14799,-14808,-14794,-14813,-14807,-14786,-14774,-14775,-14737,-14705,-14661,-14642,-14589,-14577,-14503,-14507,-14469,-14437,-14433,-14400,-14354,-14349,-14309,-14282,-14271,-14266,-14246,-14206,-14199,-14182,-14150,-14132,-14126,-14105,-14076,-14032,-14023,-14005,-13988,-13947,-13934,-13901,-13888,-13850,-13819,-13805,-13776,-13738,-13721,-13711,-13673,-13657,-13636,-13632,-13678,-13736,-13845,-13979,-14149,-14300,-14459,-14589,-14693,-14782,-14826,-14850,-14884,-14889,-14906,-14894,-14894,-14892,-14891,-14884,-14881,-14858,-14840,-14812,-14796,-14780,-14785,-14773,-14764,-14769,-14782,-14758,-14764,-14775,-14795,-14747,-14751,-14734,-14700,-14681,-14663,-14631,-14596,-14554,-14519,-14496,-14482,-14428,-14395,-14375,-14356,-14338,-14326,-14296,-14259,-14251,-14233,-14234,-14219,-14188,-14180,-14165,-14134,-14122,-14089,-14073,-14042,-14041,-14018,-14019,-13959,-13940,-13924,-13906,-13875,-13863,-13826,-13796,-13770,-13745,-13737,-13793,-13856,-13946,-14096,-14241,-14389,-14514,-14644,-14747,-14821,-14867,-14895,-14906,-14895,-14919,-14890,-14876,-14863,-14842,-14832,-14816,-14777,-14743,-14740,-14699,-14680,-14690,-14691,-14690,-14694,-14708,-14705,-14714,-14720,-14708,-14680,-14688,-14647,-14600,-14588,-14553,-14541,-14505,-14460,-14440,-14430,-14391,-14362,-14325,-14320,-14294,-14259,-14247,-14227,-14201,-14191,-14189,-14166,-14166,-14128,-14139,-14111,-14091,-14101,-14061,-14052,-14036,-14015,-14004,-13965,-13926,-13894,-13895,-13871,-13848,-13837,-13860,-13935,-14032,-14146,-14282,-14420,-14511,-14626,-14725,-14793,-14811,-14841,-14857,-14857,-14869,-14842,-14847,-14828,-14822,-14798,-14778,-14753,-14735,-14698,-14685,-14675,-14687,-14690,-14671,-14681,-14665,-14692,-14703,-14706,-14705,-14705,-14690,-14677,-14663,-14631,-14604,-14580,-14556,-14520,-14477,-14448,-14428,-14397,-14348,-14323,-14298,-14236,-14234,-14197,-14159,-14149,-14115,-14105,-14089,-14037,-14019,-13998,-13963,-13946,-13917,-13889,-13852,-13822,-13818,-13780,-13762,-13731,-13716,-13682,-13667,-13641,-13635,-13675,-13768,-13858,-14004,-14136,-14248,-14371,-14475,-14534,-14614,-14659,-14695,-14699,-14710,-14712,-14710,-14729,-14737,-14752,-14762,-14769,-14741,-14732,-14702,-14706,-14698,-14696,-14683,-14680,-14706,-14682,-14693,-14711,-14691,-14683,-14702,-14678,-14641,-14639,-14605,-14586,-14569,-14555,-14525,-14481,-14450,-14422,-14414,-14368,-14352,-14334,-14318,-14314,-14281,-14261,-14254,-14262,-14217,-14193,-14193,-14198,-14174,-14158,-14164,-14138,-14116,-14096,-14064,-14036,-14022,-13986,-13973,-13952,-13926,-13886,-13879,-13856,-13821,-13842,-13899,-13986,-14096,-14230,-14353,-14597,-14697,-14801,-14863,-14890,-14939,-14966,-14983,-14969,-14977,-14968,-14974,-14975,-14968,-14946,-14917,-14895,-14854,-14856,-14817,-14793,-14775,-14766,-14756,-14740,-14725,-14720,-14723,-14696,-14677,-14673,-14648,-14647,-14608,-14573,-14569,-14549,-14509,-14493,-14482,-14443,-14425,-14403,-14405,-14380,-14375,-14353,-14350,-14344,-14330,-14291,-14311,-14285,-14262,-14254,-14251,-14246,-14192,-14204,-14172,-14159,-14126,-14133,-14097,-14072,-14032,-14015,-14017,-14005,-14054,-14131,-14204,-14333,-14483,-14609,-14744,-14863,-14928,-15016,-15048,-15060,-15079,-15085,-15103,-15077,-15077,-15069,-15040,-15033,-15010,-14987,-14972,-14956,-14902,-14936,-14907,-14924,-14948,-14957,-14940,-14955,-14972,-14954,-14950,-14953,-14925,-14905,-14884,-14863,-14836,-14813,-14773,-14738,-14700,-14681,-14668,-14617,-14604,-14579,-14537,-14518,-14496,-14472,-14439,-14408,-14392,-14353,-14324,-14302,-14273,-14258,-14232,-14204,-14198,-14161,-14146,-14113,-14091,-14050,-14046,-14018,-14022,-14077,-14123,-14235,-14361,-14477,-14622,-14739,-14818,-14916,-15012,-15052,-15082,-15088,-15132,-15111,-15135,-15127,-15135,-15136,-15117,-15113,-15090,-15071,-15063,-15018,-15011,-15026,-15019,-15014,-15038,-15023,-15050,-15040,-15030,-15022,-15003,-14986,-14973,-14949,-14945,-14895,-14881,-14808,-14783,-14760,-14732,-14702,-14671,-14629,-14601,-14574,-14532,-14499,-14473,-14462,-14442,-14415,-14408,-14401,-14362,-14335,-14309,-14309,-14258,-14251,-14214,-14196,-14174,-14168,-14128,-14107,-14117,-14147,-14197,-14258,-14372,-14487,-14581,-14722,-14838,-14907,-14967,-15028,-15059,-15074,-15098,-15092,-15108,-15128,-15128,-15139,-15156,-15151,-15118,-15107,-15069,-15048,-15046,-15020,-14994,-14996,-14975,-14991,-14980,-14967,-14953,-14934,-14922,-14913,-14890,-14858,-14841,-14826,-14790,-14747,-14734,-14687,-14649,-14637,-14610,-14572,-14554,-14520,-14507,-14465,-14467,-14418,-14420,-14397,-14388,-14366,-14349,-14319,-14303,-14304,-14252,-14248,-14230,-14176,-14185,-14145,-14128,-14092,-14067,-14062,-14069,-14123,-14178,-14264,-14373,-14471,-14565,-14674,-14734,-14780,-14840,-14842,-14868,-14894,-14897,-14898,-14901,-14903,-14896,-14891,-14905,-14871,-14837,-14814,-14803,-14774,-14756,-14747,-14740,-14734,-14738,-14719,-14709,-14732,-14684,-14672,-14685,-14634,-14614,-14584,-14566,-14532,-14517,-14508,-14450,-14434,-14419,-14384,-14343,-14323,-14289,-14267,-14257,-14241,-14226,-14203,-14164,-14131,-14135,-14105,-14086,-14058,-14043,-13999,-13991,-13962,-13923,-13911,-13887,-13861,-13842,-13782,-13777,-13728,-13704,-13700,-13669,-13638,-13598,-13586,-13577,-13543,-13513,-13494,-13445,-13443,-13415,-13380,-13390,-13430,-13469,-13573,-13648,-13749,-13844,-13949,-14024,-14087,-14124,-14156,-14166,-14166,-14187,-14162,-14166,-14179,-14154,-14152,-14151,-14133,-14142,-14111,-14086,-14078,-14070,-14044,-14044,-14050,-14036,-14043,-14047,-14031,-14031,-14038,-14007,-14013,-13976,-13969,-13942,-13942,-13907,-13896,-13870,-13845,-13807,-13804,-13789,-13746,-13748,-13721,-13684,-13690,-13673,-13641,-13636,-13611,-13608,-13579,-13556,-13539,-13538,-13527,-13488,-13488,-13457,-13430,-13388,-13381,-13347,-13320,-13306,-13494,-13465,-13436,-13414,-13378,-13340,-13315,-13297,-13287,-13271,-13244,-13251,-13271,-13295,-13375,-13462,-13567,-13644,-13741,-13829,-13902,-13956,-13981,-13995,-13997,-14022,-14005,-14003,-14003,-13984,-13977,-13973,-13951,-13926,-13897,-13908,-13889,-13895,-13881,-13874,-13862,-13888,-13892,-13903,-13908,-13903,-13919,-13887,-13886,-13860,-13860,-13821,-13820,-13788,-13780,-13761,-13723,-13696,-13677,-13658,-13636,-13631,-13632,-13620,-13594,-13578,-13572,-13564,-13524,-13528,-13492,-13503,-13488,-13475,-13446,-13423,-13407,-13372,-13381,-13365,-13329,-13332,-13305,-13281,-13275,-13267,-13248,-13216,-13183,-13175,-13170,-13130,-13113,-13097,-13067,-13071,-13068,-13074,-13147,-13233,-13330,-13445,-13583,-13673,-13779,-13867,-13917,-13963,-14006,-14021,-14006,-14023,-14012,-14002,-14006,-14027,-14009,-14001,-13999,-13979,-13959,-13953,-13925,-13935,-13922,-13932,-13944,-13937,-13926,-13919,-13912,-13914,-13889,-13899,-13873,-13880,-13849,-13837,-13791,-13782,-13768,-13732,-13716,-13692,-13672,-13647,-13617,-13611,-13599,-13557,-13529,-13521,-13514,-13491,-13478,-13472,-13442,-13424,-13430,-13392,-13388,-13361,-13363,-13319,-13313,-13302,-13300,-13281,-13254,-13234,-13228,-13190,-13187,-13163,-13120,-13123,-13085,-13064,-13064,-13053,-13021,-13050,-13036,-13063,-13163,-13238,-13353,-13487,-13607,-13711,-13805,-13894,-13942,-13990,-14017,-14012,-14005,-13999,-13996,-13968,-13955,-13961,-13929,-139135.65517,-13825,-13854,-13840,-13849,-13842,-13861,-13862,-13829,-13834,-13816,-13778,-13767,-13752,-13738,-13691,-13706,-13654,-13634,-13604,-13613,-13579,-13542,-13518,-13496,-13500,-13486,-13460,-13438,-13421,-13387,-13384,-13373,-13346,-13342,-13321,-13297,-13272,-13279,-13242,-13237,-13212,-13200,-13187,-13144,-13142,-13113,-13100,-13067,-13061,-12993,-12982,-12958,-12949,-12918,-12909,-12932,-12970,-13065,-13168,-13294,-13420,-13553,-13652,-13748,-13840,-13888,-13905,-13936,-13928,-13903,-13897,-13899,-13866,-13872,-13856,-13838,-13800,-13791,-13766,-13733,-13742,-13742,-13751,-13778,-13754,-13777,-13797,-13796,-13835,-13824,-13810,-13815,-13795,-13789,-13755,-13747,-13710,-13680,-13654,-13636,-13607,-13591,-13570,-13530,-13519,-13479,-13480,-13452,-13457,-13463,-13438,-13419,-13424,-13417,-13401,-13370,-13364,-13351,-13340,-13329,-13308,-13282,-13279,-13253,-13248,-13213,-13181,-13172,-13149,-13123,-13089,-13076,-13062,-13050,-13083,-13108,-13213,-13330,-13479,-13614,-13782,-13894,-14019,-14102,-14174,-14194,-14225,-14218,-14212,-14201,-14203,-14187,-14191,-14191,-14165,-14157,-14159,-14119,-14099,-14104,-14100,-14084,-14122,-14132,-14134,-14144,-14139,-14140,-14149,-14150,-14131,-14117,-14100,-14053,-14050,-14033,-13986,-13954,-13935,-13898,-13886,-13853,-13826,-13791,-13798,-13769,-13735,-13727,-13704,-13673,-13671,-13666,-13672,-13632,-13625,-13595,-13584,-13581,-13557,-13554,-13523,-13517,-13492,-13471,-13454,-13420,-13399,-13359,-13363,-13343,-13320,-13308,-13309,-13373,-13457,-13591,-13719,-13867,-13994,-14107,-14243,-14328,-14394,-14429,-14461,-14487,-14491,-14488,-14478,-14466,-14463,-14459,-14454,-14438,-14403,-14393,-14377,-14394,-14351,-14344,-14333,-14339,-14332,-14336,-14364,-14354,-14330,-14337,-14313,-14307,-14275,-14250,-14206,-14185,-14129,-14086,-14076,-14043,-14018,-13986,-13961,-13932,-13930,-13884,-13864,-13861,-13830,-13831,-13811,-13777,-13750,-13731,-13687,-13686,-13659,-13636,-13609,-13589,-13554,-13549,-13525,-13505,-13491,-13426,-13423,-13397,-13351,-13339,-13320,-13272,-13250,-13247,-13251,-13283,-13356,-13481,-13607,-13739,-13892,-14031,-14145,-14242,-14314,-14362,-14364,-14378,-14374,-14373,-14348,-14387,-14353,-14358,-14328,-14307,-14294,-14284,-14260,-14270,-14238,-14245,-14259,-14251,-14274,-14281,-14278,-14292,-14326,-14308,-14298,-14293,-14290,-14254,-14244,-14209,-14177,-14166,-14143,-14106,-14090,-14062,-14030,-14019,-13993,-13992,-13966,-13957,-13935,-13910,-13912,-13908,-13884,-13857,-13842,-13825,-13804,-13796,-13792,-13761,-13735,-13711,-13676,-13625,-13607,-13577,-13521,-13504,-13466,-13456,-13411,-13418,-13418,-13457,-13531,-13648,-13776,-13901,-14046,-14189,-14292,-14397,-14465,-14528,-14532,-14537,-14548,-14554,-14539,-14565,-14554,-14570,-14558,-14560,-14559,-14537,-14508,-14507,-14493,-14505,-14514,-14527,-14538,-14547,-14528,-14545,-14547,-14531,-14525,-14527,-14502,-14489,-14434,-14411,-14388,-14347,-14327,-14302,-14272,-14260,-14211,-14194,-14187,-14165,-14150,-14135,-14131,-14104,-14095,-14108,-14060,-14065,-14024,-14027,-14015,-13990,-13979,-13963,-13952,-13953,-13939,-13918,-13907,-13863,-13852,-13809,-13789,-13743,-13724,-13705,-13682,-13656,-13643,-13634,-13651,-13710,-13808,-13943,-14101,-14253,-14414,-14546,-14660,-14742,-14828,-14858,-14891,-14889,-14889,-14899,-14894,-14889,-14919,-14893,-14894,-14893,-14851,-14819,-14809,-14787,-14776,-14766,-14740,-14747,-14729,-14721,-14727,-14697,-14687,-14674,-14667,-14628,-14627,-14605,-14567,-14534,-14501,-14471,-14452,-14431,-14387,-14364,-14325,-14307,-14290,-14274,-14251,-14211,-14201,-14181,-14175,-14144,-14142,-14124,-14097,-14080,-14068,-14048,-14032,-14033,-14011,-13980,-13952,-13933,-13909,-13863,-13836,-13810,-13802,-13777,-13755,-13740,-13699,-13692,-13677,-13695,-13751,-13878,-14005,-14150,-14331,-14489,-14605,-14722,-14799,-14861,-14879,-14918,-14923,-14893,-14904,-14875,-14887,-14860,-14848,-14847,-14808,-14781,-14754,-14726,-14704,-14690,-14692,-14677,-14671,-14669,-14685,-14685,-14677,-14676,-14663,-14648,-14623,-14588,-14552,-14532,-14508,-14480,-14438,-14406,-14391,-14355,-14338,-14318,-14293,-14276,-14256,-14233,-14216,-14218,-14200,-14175,-14166,-14168,-14139,-14129,-14125,-14102,-14084,-14076,-14061,-14040,-14022,-14001,-13993,-13972,-13952,-13933,-13906,-13889,-13853,-13843,-13807,-13791,-13773,-13759,-13716,-13761,-13826,-13922,-14033,-14201,-14355,-14519,-14656,-14785,-14874,-14933,-14956,-14991,-14997,-14989,-15001,-14998,-14993,-14999,-15007,-14997,-14969,-14951,-14908,-14903,-14880,-14858,-14836,-14855,-14853,-14852,-14852,-14855,-14840,-14829,-14834,-14811,-14791,-14763,-14761,-14702,-14698,-14665,-14623,-14584,-14565,-14528,-14505,-14510,-14472,-14451,-14453,-14438,-14422,-14412,-14382,-14332,-14318,-14324,-14319,-14269,-14263,-14230,-14215,-14219,-14206,-14168,-14158,-14147,-14144,-14110,-14100,-14065,-14056,-14025,-14012,-13983,-13956,-13953,-13921,-13898,-13882,-13867,-13855,-13836,-13849,-13876,-13958,-14078,-14224,-14362,-14535,-14681,-14837,-14940,-15028,-15115,-15155,-15191,-15230,-15230,-15231,-15256,-15252,-15250,-15268,-15237,-15236,-15202,-15165,-15141,-15106,-15104,-15073,-15078,-15061,-15062,-15042,-15048,-15002,-15007,-15000,-14976,-14941,-14923,-14878,-14848,-14828,-14804,-14776,-14734,-14717,-14689,-14673,-14643,-14615,-14621,-14567,-14553,-14540,-14503,-14491,-14463,-14448,-14414,-14392,-14374,-14352,-14314,-14288,-14262,-14232,-14226,-14184,-14162,-14140,-14104,-14077,-14058,-14038,-14022,-13989,-13978,-13976,-13934,-13917,-13895,-13888,-13827,-13806,-13778,-13768,-13728,-13719,-13705,-13693,-13709,-13748,-13827,-13945,-14095,-14244,-14395,-14523,-14642,-14734,-14784,-14836,-14873,-14881,-14896,-14891,-14876,-14856,-14879,-14875,-14876,-14865,-14855,-14801,-14785,-14749,-14723,-14724,-14697,-14699,-14692,-14690,-14690,-14683,-14669,-14674,-14672,-14661,-14625,-14594,-14577,-14543,-14494,-14470,-14443,-14423,-14389,-14346,-14333,-14305,-14292,-14269,-14252,-14216,-14208,-14183,-14158,-14144,-14134,-14109,-14099,-14094,-14064,-14055,-14028,-13995,-13974,-13977,-13945,-13921,-13911,-13892,-13863,-13855,-13805,-13801,-13799,-13762,-13747,-13759,-13703,-13703,-13673,-13653,-13620,-13629,-13600,-13577,-13579,-13585,-13650,-13721,-13828,-13955,-14098,-14235,-14365,-14457,-14586,-14600,-14650,-14661,-14690,-14671,-14674,-14671,-14668,-14656,-14654,-14666,-14660,-14612,-14597,-14583,-14537,-14515,-14519,-14531,-14523,-14542,-14527,-14528,-14523,-14521,-14513,-14507,-14467,-14469,-14444,-14401,-14364,-14323,-14291,-14267,-14245,-14203,-14180,-14151,-14114,-14117,-14077,-14057,-14056,-14049,-14009,-14014,-13983,-13961,-13945,-13937,-13923,-13913,-13881,-13855,-13843,-13817,-13799,-13779,-13735,-13748,-13718,-13694,-13675,-13657,-13643,-13596,-13600,-13578,-13549,-13528,-13508,-13509,-13489,-13467,-13470,-13466,-13418,-13407,-13410,-13432,-13454,-13544,-13654,-13802,-13954,-14106,-14246,-14383,-14473,-14537,-14608,-14631,-14646,-14669,-14684,-14682,-14675,-14694,-14728,-14737,-14721,-14707,-14699,-14680,-14677,-14655,-14626,-14618,-14603,-14567,-14562,-14575,-14574,-14563,-14542,-14531,-14522,-14503,-14481,-14466,-14422,-14403,-14365,-14341,-14310,-14269,-14252,-14226,-14188,-14175,-14140,-14129,-14106,-14083,-14075,-14037,-14028,-13984,-13988,-13971,-13916,-13918,-13880,-13871,-13851,-13813,-13804,-13785,-13754,-13724,-13692,-13658,-13650,-13644,-13610,-13595,-13543,-13551,-13560,-13515,-13480,-13461,-13428,-13411,-13383,-13360,-13352,-13344,-13298,-13285,-13310,-13353,-13415,-13514,-13676,-13800,-13936,-14081,-14215,-14295,-14375,-14428,-14457,-14464,-14459,-14452,-14445,-14444,-14439,-14440,-14422,-14422,-14393,-14366,-14359,-14327,-14300,-14321,-14306,-14289,-14318,-14318,-14311,-14311,-14300,-14317,-14292,-14263,-14269,-14239,-14216,-14199,-14154,-14124,-14070,-14058,-14040,-14022,-13979,-13961,-13951,-13928,-13917,-13910,-13899,-13875,-13851,-13838,-13821,-13816,-13809,-13792,-13749,-13744,-13730,-13709,-13696,-13678,-13656,-13639,-13621,-13596,-13566,-13536,-13529,-13500,-13493,-13452,-13414,-13399,-13381,-13373,-13360,-13364,-13406,-13490,-13620,-13752,-13891,-14023,-14190,-14285,-14385,-14447,-14484,-14504,-14511,-14489,-14476,-14481,-14472,-14465,-14451,-14448,-14431,-14398,-14373,-14325,-14319,-14343,-14331,-14342,-14336,-14345,-14367,-14363,-14359,-14348,-14347,-14319,-14309,-14274,-14248,-14219,-14209,-14177,-14139,-14098,-14087,-14049,-14040,-14016,-13979,-13953,-13948,-13938,-13899,-13891,-13873,-13866,-13858,-13828,-13807,-13804,-13790,-13775,-13767,-13752,-13726,-13693,-13680,-13660,-13659,-13626,-13593,-13568,-13550,-13527,-13500,-13494,-13446,-13438,-13403,-13400,-13382,-13380,-13395,-13461,-13562,-13698,-13831,-14007,-14159,-14302,-14436,-14531,-14596,-14657,-14672,-14719,-14684,-14704,-14691,-14685,-14689,-14698,-14686,-14662,-14666,-14632,-14625,-14586,-14553,-14544,-14527,-14534,-14542,-14531,-14517,-14514,-14532,-14509,-14507,-14502,-14474,-14449,-14439,-14399,-14366,-14346,-14315,-14274,-14256,-14216,-14197,-14184,-14145,-14140,-14099,-14084,-14062,-14036,-14035,-14004,-13994,-13956,-13932,-13937,-13916,-13899,-13871,-13862,-13836,-13837,-13802,-13771,-13761,-13734,-13711,-13677,-13669,-13658,-13618,-13590,-13573,-13542,-13504,-13485,-13482,-13505,-13538,-13630,-13729,-13882,-14042,-14182,-14329,-14458,-14552,-14608,-14649,-14679,-14697,-14672,-14670,-14673,-14649,-14645,-14623,-14622,-14589,-14565,-14530,-14497,-14474,-14455,-14446,-14439,-14436,-14431,-14413,-14423,-14422,-14414,-14404,-14374,-14372,-14330,-14309,-14281,-14252,-14214,-14199,-14149,-14138,-14108,-14072,-14047,-14028,-14005,-13976,-13958,-13930,-13931,-13896,-13890,-13867,-13855,-13843,-13798,-13791,-13780,-13774,-13742,-13708,-13693,-13678,-13682,-13643,-13606,-13599,-13573,-13537,-13479,-13474,-13458,-13425,-13418,-13442,-13473,-13533,-13635,-13782,-13909,-14035,-14174,-14246,-14353,-14427,-14460,-14477,-14490,-14496,-14485,-14449,-14450,-14446,-14442,-14418,-14406,-14385,-14373,-14325,-14341,-14320,-14327,-14353,-14373,-14384,-14407,-14420,-14416,-14443,-14462,-14467,-14442,-14434,-14423,-14380,-14373,-14360,-14325,-14301,-14293,-14245,-14238,-14222,-14198,-14168,-14159,-14154,-14149,-14120,-14117,-14091,-14100,-14081,-14081,-14042,-14032,-14021,-14013,-13983,-13979,-13944,-13930,-13887,-13853,-13802,-13781,-13762,-13745,-13764,-13816,-13899,-14004,-14136,-14252,-14368,-14473,-14543,-14610,-14660,-14683,-14706,-14694,-14697,-14677,-14658,-14666,-14651,-14621,-14599,-14554,-14515,-14482,-14452,-14433,-14420,-14422,-14414,-14411,-14401,-14401,-14410,-14409,-14381,-14390,-14377,-14341,-14284,-14280,-14254,-14218,-14167,-14154,-14135,-14101,-14066,-14039,-14033,-14014,-13989,-13983,-13956,-13936,-13953,-13932,-13921,-13933,-13914,-13907,-13897,-13892,-13908,-13891,-13891,-13866,-13866,-13862,-13865,-13846,-13812,-13812,-13835,-13869,-13951,-14042,-14178,-14312,-14475,-14606,-14733,-14835,-14951,-15009,-15044,-15089,-15104,-15092,-15099,-15110,-15109,-15111,-15112,-15085,-15067,-15023,-15030,-14991,-14990,-14966,-14973,-14967,-14990,-15005,-15014,-15033,-15037,-15054,-15028,-15033,-15003,-14989,-14970,-14940,-14914,-14896,-14838,-14805,-14782,-14767,-14725,-14715,-14678,-14651,-14636,-14595,-14594,-14566,-14546,-14515,-14488,-14460,-14428,-14394,-14357,-14333,-14327,-14295,-14269,-14225,-14196,-14155,-14109,-14111,-14082,-14036,-14021,-13996,-13954,-13946,-13903,-13868,-13866,-13840,-13799,-13779,-13788,-13761,-13725,-13673,-13660,-13628,-13594,-13574,-13494,-13467,-13410,-13407,-13355,-13318,-13276,-13252,-13232,-13208,-13178,-13131,-13111,-13074,-13044,-13020,-12984,-12949,-12942,-12896,-12891,-12885,-12841,-12822,-12796,-12767,-12724,-12710,-12687,-12652,-12636,-12682,-12792,-12945,-13094,-13281,-13456,-13626,-13761,-13881,-14009,-14072,-14162,-14219,-14246,-14299,-14322,-14354,-14392,-14420,-14456,-14498,-14540,-14559,-14573,-14574,-14592,-14578,-14562,-14597,-14592,-14593,-14589,-14586,-14600,-14627,-14616,-14624,-14608,-14608,-14578,-14586,-14570,-14574,-14535,-14512,-14499,-14479,-14469,-14440,-14427,-14385,-14385,-14355,-14331,-14294,-14286,-14266,-14239,-14198,-14187,-14144,-14100,-14067,-14056,-14004,-13972,-13937,-13914,-13877,-13835,-13797,-13765,-13726,-13694,-13674,-13653,-13627,-13588,-13566,-13528,-13496,-13460,-13443,-13420,-13402,-13383,-13339,-13328,-13289,-13245,-13220,-13205,-13169,-13157,-13127,-13098,-13107,-13115,-13176,-13239,-13342,-13433,-13518,-13573,-13680,-13749,-13789,-13837,-13828,-13876,-13876,-13899,-13904,-13915,-13903,-13941,-13941,-13924,-13958,-13951,-13951,-13930,-13907,-13891,-13873,-13862,-13862,-13840,-13848,-13836,-13838,-13816,-13805,-13798,-13774,-13746,-13725,-13706,-13699,-13704,-13639,-13628,-13607,-13565,-13561,-13519,-13510,-13474,-13446,-13412,-13402,-13372,-13358,-13335,-13290,-13288,-13282,-13241,-13232,-13212,-13166,-13166,-13154,-13136,-13103,-13080,-13053,-13052,-13022,-13008,-12964,-12955,-12939,-12923,-12905,-12869,-12855,-12825,-12811,-12792,-12778,-12744,-12723,-12707,-12684,-12659,-12652,-12640,-12617,-12606,-12616,-12653,-12715,-12792,-12857,-12926,-13003,-13049,-13094,-13127,-13126,-13134,-13151,-13131,-13138,-13128,-13094,-13086,-13079,-13090,-13068,-13054,-13041,-13028,-13016,-13007,-12974,-12983,-12955,-12952,-12955,-12976,-12948,-12932,-12925,-12917,-12905,-12883,-12877,-12851,-12829,-12832,-12811,-12782,-12744,-12754,-12704,-12676,-12689,-12646,-12649,-12624,-12596,-12583,-12559,-12532,-12536,-12517,-12508,-12475,-12469,-12449,-12418,-12407,-12373,-12374,-12325,-12335,-12296,-12296,-12274,-12237,-12225,-12210,-12211,-12196,-12164,-12158,-12114,-12114,-12102,-12072,-12057,-12030,-12015,-11990,-11973,-11959,-11928,-11919,-11904,-11874,-11897,-11941,-11991,-12033,-12112,-12171,-12188,-12224,-12257,-12292,-12282,-12270,-12255,-12242,-12236,-12232,-12219,-12210,-12207,-12211,-12200,-12178,-12161,-12161,-12150,-12140,-12131,-12128,-12133,-12144,-12138,-12146,-12138,-12119,-12113,-12122,-12113,-12082,-12075,-12054,-12047,-12046,-12024,-11994,-11974,-11957,-11951,-11919,-11929,-11922,-11893,-11887,-11869,-11874,-11854,-11845,-11823,-11814,-11818,-11777,-11779,-11756,-11739,-11739,-11734,-11722,-11709,-11684,-11671,-11643,-11653,-11631,-11621,-11601,-11600,-11571,-11557,-11539,-11527,-11505,-11508,-11476,-11458,-11462,-11447,-11417,-11425,-11415,-11438,-11472,-11513,-11582,-11620,-11681,-11725,-11754,-11778,-11787,-11800,-11787,-11781,-11761,-11742,-11726,-11717,-11722,-11708,-11694,-11670,-11658,-11681,-11659,-11649,-11627,-11639,-11639,-11640,-11669,-11645,-11650,-11653,-11647,-11663,-11650,-11658,-11646,-11612,-11609,-11589,-11569,-11572,-11555,-11544,-11530,-11519,-11523,-11489,-11497,-11484,-11454,-11436,-11422,-11409,-11413,-11408,-11380,-11394,-11378,-11365,-11357,-11323,-11319,-11296,-11301,-11288,-11283,-11244,-11254,-11262,-11223,-11223,-11201,-11200,-11189,-11163,-11155,-11127,-11121,-11104,-11103,-11104,-11151,-11186,-11253,-11311,-11363,-11401,-11449,-11483,-11488,-11531,-11518,-11537,-11522,-11488,-11481,-11492,-11461,-11448,-11441,-11436,-11441,-11405,-11431,-11422,-11431,-11418,-11407,-11425,-11440,-11453,-11448,-11430,-11438,-11451,-11433,-11402,-11431,-11423,-11419,-11417,-11375,-11381,-11366,-11362,-11375,-11373,-11353,-11353,-11333,-11334,-11329,-11309,-11307,-11304,-11299,-11295,-11288,-11281,-11300,-11286,-11268,-11249,-11254,-11232,-11238,-11221,-11229,-11201,-11187,-11177,-11150,-11163,-11139,-11125,-11108,-11111,-11086,-11073,-11052,-11039,-11031,-11046,-11071,-11112,-11195,-11237,-11325,-11382,-11431,-11495,-11509,-11555,-11573,-11577,-11586,-11544,-11569,-11576,-11569,-11556,-11567,-11575,-11563,-11576,-11554,-11574,-11553,-11588,-11584,-11590,-11612,-11600,-11632,-11624,-11635,-11639,-11623,-11631,-11625,-11632,-11618,-11629,-11605,-11589,-11577,-11572,-11556,-11556,-11536,-11548,-11524,-11517,-11503,-11513,-11500,-11524,-11517,-11526,-11502,-11528,-11518,-11526,-11528,-11529,-11499,-11515,-11510,-11500,-11499,-11475,-11478,-11457,-11439,-11433,-11410,-11409,-11397,-11381,-11370,-11371,-11375,-11409,-11443,-11495,-11590,-11665,-11770,-11838,-11921,-11975,-12043,-12082,-12102,-12131,-12114,-12115,-12117,-12120,-12109,-12132,-12098,-12082,-12073,-12061,-12066,-12053,-12069,-12056,-12052,-12069,-12072,-12075,-12082,-12091,-12086,-12084,-12096,-12102,-12082,-12077,-12066,-12068,-12056,-12070,-12053,-12055,-12044,-12037,-12020,-12005,-11986,-11982,-11967,-11967,-11937,-11927,-11932,-11921,-11907,-11895,-11886,-11864,-11875,-11852,-11853,-11824,-11843,-11812,-11819,-11802,-11797,-11772,-11757,-11749,-11750,-11710,-11712,-11673,-11693,-11741,-11785,-11860,-11927,-11979,-12096,-12149,-12202,-12239,-12283,-12308,-12312,-12324,-12320,-12294,-12297,-12279,-12278,-12251,-12241,-12227,-12217,-12187,-12195,-12185,-12194,-12183,-12198,-12194,-12241,-12221,-12225,-12241,-12239,-12224,-12226,-12218,-12198,-12211,-12187,-12169,-12165,-12132,-12124,-12118,-12107,-12074,-12080,-12041,-12034,-12024,-12013,-11997,-12002,-11962,-11981,-11947,-11943,-11934,-11947,-11915,-11911,-11920,-11933,-11903,-11904,-11891,-11861,-11855,-11827,-11820,-11820,-11780,-11771,-11757,-11744,-11756,-11778,-11806,-11869,-11979,-12043,-12114,-12206,-12290,-12331,-12370,-12419,-12448,-12435,-12435,-12425,-12412,-12400,-12394,-12372,-12356,-12317,-12296,-12269,-12270,-12264,-12254,-12260,-12278,-12263,-12265,-12285,-12286,-12295,-12317,-12307,-12267,-12270,-12275,-12270,-12255,-12211,-12230,-12203,-12201,-12171,-12171,-12158,-12138,-12127,-12107,-12112,-12105,-12085,-12054,-12048,-12039,-12028,-12021,-12024,-12008,-11981,-11999,-11995,-11996,-11965,-11982,-11958,-11951,-11950,-11934,-11922,-11909,-11883,-11858,-11830,-11808,-11810,-11804,-11840,-11878,-11956,-12033,-12123,-12232,-12345,-12442,-12530,-12575,-12623,-12643,-12654,-12642,-12635,-12615,-12587,-12581,-12553,-12537,-12536,-12506,-12518,-12498,-12502,-12494,-12510,-12515,-12499,-12518,-12507,-12525,-12507,-12500,-12505,-12427,-12436,-12388,-12362,-12350,-12318,-12257,-12233,-12232,-12219,-12188,-12189,-12193,-12166,-12162,-12144,-12153,-12166,-12125,-12107,-12103,-12093,-12052,-12037,-12031,-11987,-11972,-11944,-11923,-11901,-11885,-11841,-11833,-11816,-11804,-11765,-11771,-11739,-11733,-11718,-11702,-11676,-11690,-11694,-11760,-11826,-11904,-11999,-12129,-12242,-12329,-12417,-12451,-12494,-12490,-12530,-12528,-12529,-12481,-12478,-12477,-12453,-12450,-12421,-12389,-12375,-12384,-12367,-12380,-12379,-12410,-12407,-12455,-12481,-12510,-12518,-12537,-12543,-12560,-12559,-12565,-12558,-12530,-12531,-12488,-12496,-12485,-12470,-12428,-12412,-12412,-12401,-12394,-12384,-12390,-12370,-12363,-12372,-12385,-12354,-12353,-12365,-12363,-12343,-12332,-12317,-12314,-12308,-12293,-12297,-12271,-12257,-12239,-12210,-12224,-12193,-12188,-12165,-12129,-12120,-12109,-12084,-12099,-12098,-12165,-12247,-12337,-12443,-12561,-12668,-12789,-12842,-12909,-12949,-12948,-12979,-12953,-12945,-12919,-12922,-12897,-12872,-12864,-12862,-12828,-12820,-12806,-12779,-12786,-12799,-12821,-12794,-12841,-12837,-12836,-12857,-12857,-12826,-12838,-12832,-12797,-12808,-12766,-12755,-12738,-12728,-12696,-12683,-12654,-12644,-12623,-12598,-12592,-12573,-12566,-12542,-12565,-12545,-12552,-12540,-12515,-12512,-12495,-12491,-12478,-12461,-12461,-12466,-12455,-12418,-12412,-12381,-12362,-12331,-12314,-12283,-12286,-12278,-12244,-12220,-12214,-12211,-12158,-12142,-12148,-12192,-12262,-12326,-12429,-12533,-12653,-12768,-12892,-12960,-12992,-13017,-13058,-13067,-13063,-13042,-13012,-13018,-13005,-12990,-12958,-12962,-12941,-12925,-12904,-12896,-12898,-12883,-12892,-12908,-12908,-12926,-12924,-12923,-12917,-12919,-12892,-12898,-12887,-12863,-12844,-12819,-12791,-12764,-12753,-12732,-12697,-12686,-12652,-12651,-12626,-12613,-12565,-12597,-12550,-12534,-12527,-12499,-12502,-12471,-12477,-12475,-12443,-12438,-12415,-12421,-12398,-12358,-12371,-12352,-12307,-12311,-12290,-12282,-12249,-12244,-12207,-12195,-12156,-12149,-12140,-12147,-12241,-12329,-12446,-12549,-12650,-12771,-12856,-12911,-12976,-13005,-13014,-13037,-13014,-13007,-12980,-12983,-12975,-12967,-12947,-12935,-12915,-12873,-12881,-12880,-12886,-12877,-12896,-12916,-12921,-12927,-12940,-12946,-12935,-12964,-12947,-12922,-12913,-12916,-12889,-12859,-12846,-12812,-12789,-12780,-12762,-12729,-12727,-12680,-12682,-12678,-12656,-12644,-12629,-12622,-12612,-12607,-12588,-12588,-12560,-12572,-12549,-12551,-12524,-12518,-12500,-12497,-12472,-12439,-12432,-12408,-12372,-12359,-12361,-12328,-12332,-12300,-12302,-12352,-12417,-12513,-12604,-12740,-12869,-12958,-13059,-13132,-13200,-13218,-13272,-13272,-13258,-13262,-13257,-13233,-13231,-13226,-13217,-13205,-13190,-13186,-13163,-13173,-13156,-13158,-13177,-13164,-13182,-13198,-13195,-13221,-13220,-13216,-13227,-13203,-13190,-13175,-13166,-13135,-13096,-13084,-13060,-13052,-13020,-12990,-13002,-13000,-12965,-12948,-12963,-12949,-12911,-12913,-12902,-12893,-12885,-12874,-12856,-12851,-12844,-12816,-12826,-12803,-12795,-12797,-12767,-12765,-12728,-12718,-12713,-12686,-12657,-12651,-12618,-12608,-12594,-12623,-12657,-12720,-12829,-12944,-13091,-13185,-13332,-13428,-13518,-13562,-13616,-13634,-13630,-13640,-13620,-13638,-13626,-13611,-13630,-13613,-13602,-13596,-13592,-13572,-13561,-13576,-13590,-13594,-13596,-13613,-13611,-13627,-13624,-13621,-13612,-13593,-13589,-13579,-13571,-13554,-13518,-13509,-13491,-13460,-13451,-13425,-13432,-13378,-13374,-13356,-13362,-13341,-13347,-13320,-13305,-13315,-13302,-13295,-13279,-13288,-13255,-13253,-13229,-13190,-13192,-13157,-13161,-13124,-13105,-13097,-13067,-13047,-13016,-12992,-12975,-12964,-12944,-12960,-13005,-13070,-13162,-13269,-13385,-13511,-13638,-13710,-13782,-13813,-13841,-13873,-13858,-13860,-13859,-13837,-13834,-13834,-13815,-13796,-13783,-13772,-13737,-13712,-13707,-13693,-13681,-13686,-13695,-13682,-13684,-13684,-13687,-13671,-13689,-13684,-13651,-13645,-13605,-13580,-13552,-13537,-13513,-13464,-13444,-13437,-13399,-13403,-13370,-13366,-13348,-13345,-13313,-13303,-13286,-13280,-13255,-13256,-13239,-13228,-13200,-13196,-13190,-13167,-13144,-13149,-13116,-13128,-13112,-13100,-13078,-13062,-13037,-13025,-12999,-12974,-12956,-12946,-12945,-12913,-12915,-12886,-12941,-12989,-13071,-13173,-13312,-13443,-13557,-13690,-13780,-13863,-13905,-13928,-13949,-13943,-13952,-13958,-13947,-13929,-13925,-13942,-13914,-13917,-13919,-13873,-13873,-13871,-13883,-13877,-13852,-13884,-13875,-13880,-13887,-13888,-13897,-13875,-13863,-13845,-13816,-13816,-13768,-13749,-13745,-13710,-13670,-13658,-13667,-13624,-13597,-13603,-13583,-13566,-13533,-13526,-13507,-13496,-13511,-13491,-13454,-13444,-13442,-13413,-13415,-13381,-13346,-13334,-13342,-13315,-13284,-13267,-13249,-13231,-13213,-13206,-13201,-13164,-13124,-13132,-13112,-13071,-13065,-13037,-13034,-13074,-13130,-13234,-13355,-13465,-13607,-13714,-13825,-13929,-13994,-14048,-14052,-14070,-14071,-14073,-14081,-14073,-14072,-14085,-14109,-14120,-14101,-14075,-14057,-14041,-14020,-14015,-14001,-13994,-14002,-14002,-14001,-13982,-13991,-13961,-13969,-13947,-13911,-13910,-13888,-13872,-13847,-13805,-13786,-13759,-13757,-13700,-13661,-13655,-13637,-13621,-13595,-13564,-13558,-13557,-13528,-13515,-13498,-13477,-13436,-13427,-13409,-13379,-13357,-13342,-13318,-13292,-13283,-13240,-13234,-13210,-13191,-13176,-13148,-13122,-13086,-13096,-13056,-13031,-13033,-13013,-12968,-12958,-12929,-12918,-12936,-12948,-13037,-13099,-13228,-13339,-13458,-13540,-13664,-13728,-13779,-13814,-13831,-13848,-13852,-13824,-13836,-13828,-13840,-13807,-13823,-13802,-13772,-13752,-13743,-13707,-13720,-13699,-13711,-13709,-13703,-13705,-13702,-13690,-13684,-13702,-13670,-13649,-13631,-13628,-13602,-13574,-13550,-13524,-13511,-13466,-13427,-13438,-13419,-13383,-13344,-13338,-13317,-13315,-13264,-13276,-13237,-13223,-13207,-13180,-13169,-13155,-13131,-13123,-13098,-13080,-13052,-13053,-13032,-13015,-12991,-12953,-12917,-12889,-12865,-12854,-12829,-12801,-12794,-12767,-12739,-12739,-12726,-12748,-12828,-12899,-13002,-13089,-13207,-13309,-13386,-13461,-13501,-13538,-13526,-13539,-13542,-13534,-13519,-13516,-13502,-13511,-13500,-13471,-13445,-13425,-13402,-13403,-13372,-13373,-13375,-13385,-13378,-13397,-13401,-13403,-13402,-13393,-13388,-13395,-13367,-13358,-13324,-13297,-13272,-13229,-13215,-13193,-13191,-13169,-13157,-13130,-13130,-13121,-13095,-13061,-13029,-13010,-12980,-12968,-12951,-12945,-12932,-12946,-12928,-12890,-12879,-12849,-12842,-12837,-12813,-12800,-12758,-12779,-12739,-12723,-12715,-12694,-12654,-12643,-12622,-12605,-12572,-12579,-12577,-12591,-12660,-12729,-12820,-12941,-13027,-13128,-13213,-13266,-13338,-13371,-13400,-13420,-13437,-13445,-13458,-13467,-13482,-13483,-13501,-13515,-13500,-13490,-13466,-13465,-13441,-13435,-13432,-13446,-13428,-13429,-13406,-13428,-13430,-13418,-13391,-13411,-13369,-13346,-13330,-13299,-13279,-13260,-13223,-13180,-13152,-13103,-13063,-13036,-12968,-12939,-12875,-12854,-12825,-12802,-12772,-12740,-12701,-12692,-12684,-12647,-12631,-12621,-12576,-12549,-12530,-12507,-12487,-12465,-12435,-12425,-12411,-12395,-12354,-12344,-12299,-12279,-12234,-12222,-12208,-12166,-12156,-12123,-12123,-12163,-12203,-12293,-12398,-12488,-12581,-12644,-12731,-12773,-12818,-12836,-12860,-12860,-12865,-12867,-12858,-12882,-12902,-12905,-12913,-12910,-12912,-12916,-12875,-12909,-12898,-12901,-12879,-12908,-12910,-12930,-12931,-12912,-12936,-12930,-12934,-12923,-12931,-12908,-12898,-12880,-12881,-12852,-12828,-12838,-12825,-12813,-12823,-12821,-12792,-12796,-12786,-12747,-12766,-12746,-12722,-12717,-12715,-12694,-12696,-12684,-12674,-12665,-12648,-12627,-12613,-12609,-12576,-12577,-12555,-12539,-12505,-12476,-12481,-12439,-12434,-12400,-12398,-12393,-12422,-12455,-12527,-12613,-12711,-12792,-12865,-12949,-13006,-13048,-13093,-13100,-13118,-13101,-13110,-13098,-13075,-13072,-13073,-13070,-13062,-13037,-13032,-13019,-12989,-12994,-12983,-13003,-13012,-13024,-13031,-13016,-13011,-13021,-13002,-12975,-12967,-12941,-12933,-12923,-12890,-12850,-12848,-12806,-12790,-12770,-12744,-12719,-12710,-12697,-12672,-12678,-12660,-12660,-12620,-12612,-12591,-12599,-12584,-12571,-12569,-12555,-12540,-12522,-12493,-12491,-12467,-12443,-12438,-12416,-12393,-12369,-12384,-12334,-12336,-12305,-12278,-12284,-12314,-12364,-12453,-12550,-12647,-12752,-12850,-12929,-13002,-13040,-13056,-13081,-13088,-13113,-13121,-13104,-13107,-13100,-13096,-13083,-13063,-13079,-13066,-13040,-13051,-13042,-13044,-13032,-13035,-13021,-13044,-13019,-13028,-13032,-13042,-13007,-12988,-13006,-12981,-12958,-12958,-12930,-12897,-12871,-12851,-12841,-12825,-12804,-12792,-12762,-12762,-12742,-12706,-12716,-12681,-12676,-12662,-12661,-12645,-12625,-12607,-12616,-12583,-12569,-12557,-12543,-12512,-12506,-12496,-12460,-12434,-12419,-12393,-12361,-12341,-12332,-12296,-12259,-12244,-12250,-12223,-12262,-12302,-12366,-12460,-12542,-12637,-12721,-12775,-12853,-12883,-12904,-12934,-12924,-12927,-12918,-12897,-12911,-12886,-12912,-12893,-12875,-12874,-12855,-12839,-12855,-12856,-12840,-12853,-12840,-12844,-12846,-12851,-12837,-12838,-12860,-12849,-12827,-12829,-12806,-12774,-12756,-12751,-12712,-12704,-12675,-12647,-12641,-12622,-12608,-12606,-12590,-12566,-12564,-12546,-12536,-12526,-12510,-12476,-12485,-12476,-12438,-12414,-12422,-12415,-12405,-12384,-12373,-12347,-12336,-12330,-12306,-12294,-12263,-12256,-12241,-12242,-12200,-12193,-12240,-12284,-12346,-12451,-12526,-12605,-12697,-12739,-12786,-12821,-12821,-12841,-12847,-12821,-12828,-12799,-12813,-12797,-12760,-12742,-12745,-12712,-12708,-12695,-12712,-12720,-12728,-12715,-12725,-12749,-12740,-12747,-12743,-12758,-12736,-12731,-12712,-12713,-12673,-12653,-12649,-12629,-12615,-12602,-12583,-12569,-12563,-12548,-12520,-12520,-12536,-12524,-12515,-12501,-12499,-12496,-12497,-12485,-12473,-12452,-12458,-12454,-12449,-12435,-12415,-12410,-12393,-12357,-12330,-12337,-12328,-12323,-12355,-12380,-12440,-12542,-12623,-12704,-12804,-12896,-12965,-13023,-13070,-13097,-13082,-13099,-13126,-13114,-13120,-13111,-13112,-13089,-13081,-13098,-13072,-13046,-13030,-13043,-13046,-13033,-13031,-13050,-13026,-13041,-13055,-13050,-13047,-13044,-13048,-13028,-12993,-12990,-12955,-12947,-12925,-12896,-12871,-12858,-12863,-12841,-12792,-12801,-12778,-12749,-12745,-12742,-12731,-12712,-12679,-12680,-12672,-12663,-12646,-12640,-12637,-12591,-12594,-12563,-12550,-12545,-12514,-12510,-12485,-12475,-12449,-12445,-12420,-12428,-12449,-12510,-12593,-12690,-12820,-12922,-12983,-13087,-13146,-13196,-13221,-13266,-13269,-13268,-13261,-13297,-13270,-13272,-13289,-13287,-13257,-13248,-13232,-13241,-13225,-13226,-13215,-13218,-13224,-13217,-13239,-13246,-13240,-13249,-13242,-13244,-13240,-13228,-13188,-13185,-13169,-13153,-13143,-13136,-13116,-13086,-13074,-13054,-13013,-13008,-13019,-13006,-12979,-12952,-12942,-12930,-12921,-12914,-12885,-12893,-12883,-12866,-12837,-12835,-12821,-12819,-12793,-12781,-12749,-12743,-12715,-12711,-12674,-12665,-12676,-12688,-12745,-12823,-12910,-13029,-13107,-13212,-13294,-13366,-13419,-13427,-13448,-13465,-13486,-13474,-13464,-13458,-13473,-13460,-13424,-13420,-13404,-13401,-13378,-13376,-13357,-13358,-13349,-13366,-13353,-13367,-13367,-13374,-13358,-13349,-13369,-13321,-13323,-13305,-13269,-13254,-13221,-13203,-13186,-13165,-13136,-13158,-13140,-13127,-13113,-13086,-13080,-13072,-13065,-13075,-13057,-13055,-13044,-13065,-13032,-13056,-12999,-12989,-12995,-12979,-12957,-12962,-12926,-12938,-12909,-12884,-12850,-12849,-12847,-12835,-12859,-12925,-13029,-13127,-13227,-13334,-13429,-13490,-13571,-13600,-13635,-13660,-13654,-13682,-13673,-13663,-13661,-13677,-13654,-13650,-13622,-13610,-13603,-13598,-13596,-13601,-13608,-13597,-13627,-13640,-13635,-13625,-13627,-13629,-13637,-13628,-13608,-13593,-13586,-13554,-13529,-13507,-13473,-13468,-13440,-13410,-13393,-13386,-13368,-13366,-13332,-13321,-13333,-13302,-13281,-13295,-13287,-13265,-13260,-13249,-13228,-13206,-13191,-13181,-13182,-13187,-13146,-13151,-13115,-13089,-13068,-13037,-13026,-13022,-13038,-13032,-13108,-13190,-13305,-13412,-13513,-13601,-13681,-13747,-13794,-13837,-13877,-13864,-13871,-13861,-13859,-13838,-13839,-13845,-13847,-13838,-13802,-13785,-13784,-13755,-13766,-13776,-13757,-13739,-13728,-13754,-13740,-13749,-13747,-13727,-13708,-13701,-13674,-13659,-13634,-13631,-13598,-13588,-13565,-13517,-13531,-13490,-13467,-13456,-13416,-13418,-13397,-13391,-13373,-13354,-13321,-13302,-13290,-13294,-13261,-13260,-13248,-13249,-13235,-13201,-13196,-13165,-13159,-13144,-13134,-13093,-13062,-13038,-13048,-13022,-13001,-13026,-13063,-13117,-13216,-13309,-13447,-13539,-13635,-13728,-13793,-13841,-13886,-13885,-13891,-13906,-13896,-13909,-13903,-13914,-13903,-13903,-13882,-13872,-13841,-13863,-13817,-13802,-13810,-13767,-13779,-13750,-13745,-13750,-13749,-13732,-13733,-13736,-13715,-13723,-13699,-13706,-13685,-13689,-13685,-13661,-13660,-13644,-13619,-13603,-13601,-13598,-13578,-13565,-13547,-13555,-13560,-13547,-13549,-13531,-13527,-13522,-13500,-13497,-13490,-13475,-13449,-13428,-13427,-13395,-13372,-13363,-13315,-13292,-13260,-13242,-13221,-13206,-13186,-13178,-13218,-13276,-13335,-13448,-13573,-13684,-13821,-13944,-14028,-14070,-14113,-14120,-14145,-14127,-14126,-14116,-14102,-14103,-14047,-14036,-14033,-14004,-13977,-13939,-13936,-13919,-13903,-13908,-13915,-13927,-13918,-13940,-13922,-13931,-13914,-13920,-13876,-13873,-13841,-13814,-13788,-13752,-13734,-13697,-13671,-13652,-13630,-13591,-13586,-13567,-13550,-13525,-13529,-13484,-13480,-13476,-13453,-13429,-13424,-13409,-13362,-13380,-13355,-13338,-13321,-13281,-13282,-13252,-13222,-13218,-13185,-13157,-13147,-13110,-13084,-13081,-13074,-13055,-13085,-13150,-13212,-13304,-13414,-13506,-13619,-13704,-13775,-13810,-13844,-13882,-13876,-13883,-13843,-13820,-13843,-13838,-13831,-13809,-13779,-13760,-13739,-13730,-13707,-13697,-13674,-13676,-13670,-13675,-13668,-13660,-13664,-13653,-13649,-13629,-13648,-13600,-13596,-13555,-13517,-13512,-13470,-13470,-13441,-13407,-13396,-13370,-13312,-13314,-13300,-13299,-13289,-13275,-13244,-13248,-13228,-13213,-13179,-13175,-13123,-13127,-13090,-13084,-13063,-13061,-13031,-12999,-12986,-12956,-12963,-12937,-12922,-12910,-12903,-12857,-12860,-12844,-12843,-12811,-12805,-12834,-12849,-12891,-12973,-13060,-13187,-13293,-13408,-13489,-13565,-13632,-13675,-13719,-13722,-13711,-13726,-13727,-13712,-13694,-13687,-13700,-13700,-13675,-13640,-13645,-13622,-13600,-13594,-13587,-13583,-13579,-13584,-13597,-13594,-13607,-13597,-13587,-13579,-13559,-13550,-13506,-13473,-13470,-13451,-13427,-13407,-13345,-13338,-13288,-13273,-13267,-13240,-13219,-13199,-13175,-13179,-13156,-13147,-13150,-13124,-13104,-13103,-13055,-13022,-13004,-12991,-12959,-12932,-12925,-12918,-12924,-12868,-12856,-12852,-12808,-12779,-12762,-12717,-12710,-12685,-12687,-12681,-12673,-12698,-12740,-12837,-12944,-13043,-13185,-13305,-13397,-13500,-13555,-13605,-13631,-13651,-13627,-13615,-13589,-13600,-13588,-13582,-13544,-13574,-13574,-13560,-13546,-13542,-13501,-13525,-13504,-13502,-13507,-13521,-13506,-13507,-13493,-13484,-13490,-13450,-13439,-13393,-13390,-13366,-13371,-13340,-13308,-13289,-13264,-13264,-13270,-13236,-13216,-13214,-13164,-13160,-13114,-13124,-13109,-13067,-13059,-13053,-13029,-13000,-12971,-12965,-12934,-12920,-12907,-12880,-12857,-12838,-12807,-12803,-12801,-12787,-12728,-12730,-12703,-12668,-12668,-12653,-12644,-12656,-12706,-12765,-12867,-12968,-13075,-13183,-13274,-13365,-13405,-13452,-13496,-13482,-13502,-13493,-13470,-13470,-13460,-13454,-13448,-13427,-13404,-13385,-13361,-13351,-13333,-13322,-13314,-13279,-13299,-13272,-13273,-13278,-13276,-13246,-13213,-13218,-13205,-13195,-13183,-13154,-13136,-13134,-13098,-13077,-13044,-13028,-13013,-13015,-12998,-12998,-12986,-12994,-12981,-12981,-12952,-12972,-12966,-12971,-12965,-12935,-12951,-12931,-12912,-12922,-12924,-12915,-12894,-12897,-12856,-12861,-12835,-12833,-12812,-12810,-12774,-12774,-12744,-12733,-12715,-12793,-12876,-12978,-13066,-13188,-13292,-13380,-13444,-13512,-13513,-13547,-13534,-13547,-13535,-13534,-13520,-13495,-13505,-13490,-13460,-13444,-13422,-13399,-13415,-13387,-13389,-13381,-13383,-13398,-13382,-13375,-13358,-13380,-13387,-13360,-13340,-13345,-13333,-13295,-13278,-13241,-13226,-13213,-13173,-13142,-13128,-13096,-13070,-13046,-13032,-12991,-12972,-12948,-12943,-12903,-12873,-12862,-12847,-12837,-12799,-12778,-12749,-12727,-12711,-12707,-12667,-12656,-12631,-12614,-12591,-12571,-12550,-12522,-12511,-12508,-12512,-12486,-12480,-12462,-12494,-12530,-12608,-12720,-12804,-12899,-12997,-13106,-13202,-13264,-13290,-13318,-13337,-13340,-13353,-13335,-13323,-13324,-13296,-13305,-13282,-13258,-13249,-13232,-13212,-13206,-13218,-13232,-13209,-13215,-13205,-13221,-13215,-13217,-13198,-13178,-13196,-13174,-13139,-13137,-13067,-13090,-13046,-13004,-12964,-12964,-12934,-12901,-12888,-12869,-12841,-12836,-12821,-12800,-12803,-12776,-12750,-12709,-12690,-12686,-12667,-12642,-12656,-12646,-12625,-12608,-12554,-12546,-12530,-12504,-12496,-12454,-12437,-12424,-12407,-12375,-12368,-12358,-12364,-12415,-12497,-12587,-12673,-12793,-12895,-12953,-13009,-13046,-13095,-13103,-13105,-13116,-13109,-13093,-13085,-13074,-13073,-13068,-13059,-13051,-13029,-13024,-13032,-13033,-13039,-13056,-13083,-13092,-13065,-13092,-13096,-13092,-13083,-13069,-13063,-13048,-13031,-13004,-12986,-12972,-12967,-12937,-12926,-12911,-12904,-12886,-12878,-12885,-12841,-12841,-12851,-12827,-12809,-12797,-12795,-12787,-12785,-12772,-12756,-12772,-12744,-12754,-12734,-12734,-12695,-12698,-12681,-12663,-12648,-12620,-12622,-12644,-12682,-12751,-12827,-12953,-13045,-13166,-13253,-13339,-13390,-13466,-13498,-13520,-13530,-13520,-13529,-13533,-13527,-13547,-13540,-13520,-13508,-13514,-13501,-13491,-13496,-13504,-13493,-13509,-13512,-13514,-13520,-13470,-13475,-13484,-13481,-13454,-13453,-13440,-13413,-13411,-13366,-13355,-13328,-13310,-13299,-13263,-13259,-13218,-13218,-13186,-13177,-13158,-13150,-13150,-13115,-13095,-13075,-13066,-13059,-13045,-13011,-13003,-12982,-12967,-12905,-12919,-12892,-12865,-12852,-12840,-12850,-12905,-12987,-13098,-13210,-13307,-13436,-13538,-13581,-13633,-13676,-13679,-13682,-13680,-13676,-13682,-13672,-13675,-13677,-13666,-13660,-13628,-13588,-13591,-13572,-13571,-13572,-13564,-13570,-13568,-13565,-13581,-13563,-13569,-13564,-13577,-13565,-13564,-13531,-13492,-13465,-13452,-13431,-13415,-13384,-13372,-13331,-13344,-13311,-13306,-13282,-13263,-13246,-13237,-13214,-13231,-13180,-13169,-13189,-13178,-13154,-13116,-13111,-13082,-13081,-13071,-13070,-13028,-13015,-13015,-13009,-13026,-13097,-13189,-13296,-13429,-13553,-13667,-13750,-13831,-13894,-13948,-13954,-13982,-13994,-14008,-14013,-14038,-14046,-14044,-14043,-14038,-14038,-14022,-14004,-13986,-13994,-13944,-13949,-13950,-13923,-13921,-13930,-13928,-13916,-13923,-13903,-13889,-13894,-13871,-13851,-13809,-13800,-13778,-13746,-13730,-13728,-13675,-13655,-13616,-13622,-13617,-13601,-13588,-13563,-13572,-13551,-13534,-13531,-13499,-13506,-13467,-13455,-13428,-13430,-13402,-13392,-13374,-13338,-13357,-13334,-13316,-13372,-13428,-13539,-13629,-13742,-13887,-13989,-14125,-14179,-14195,-14218,-14249,-14254,-14247,-14253,-14252,-14263,-14267,-14250,-14225,-14208,-14175,-14156,-14126,-14104,-14091,-14076,-14066,-14053,-14050,-14043,-14015,-14023,-14000,-13984,-13974,-13946,-13924,-13910,-13859,-13835,-13800,-13786,-13761,-13722,-13684,-13664,-13651,-13616,-13616,-13593,-13573,-13558,-13544,-13515,-13503,-13463,-13478,-13432,-13404,-13380,-13366,-13345,-13330,-13296,-13285,-13258,-13260,-13232,-13199,-13177,-13137,-13116,-13083,-13060,-13028,-13020,-13015,-12988,-12967,-12968,-13001,-13043,-13105,-13198,-13305,-13395,-13489,-13568,-13631,-13677,-13696,-13709,-13703,-13705,-13717,-13713,-13721,-13717,-13714,-13700,-13700,-13654,-13658,-13643,-13604,-13608,-13590,-13579,-13561,-13576,-13574,-13571,-13562,-13537,-13547,-13533,-13523,-13505,-13497,-13474,-13449,-13442,-13432,-13381,-13363,-13350,-13336,-13306,-13284,-13279,-13255,-13236,-13223,-13198,-13191,-13174,-13155,-13138,-13150,-13121,-13112,-13080,-13078,-13064,-13051,-13017,-13009,-12977,-12987,-12946,-12924,-12925,-12888,-12877,-12856,-12822,-12796,-12806,-12765,-12756,-12724,-12741,-12772,-12809,-12875,-12954,-13049,-13127,-13193,-13252,-13293,-13323,-13342,-13366,-13368,-13365,-13370,-13337,-13336,-13334,-13353,-13312,-13308,-13273,-13256,-13238,-13243,-13224,-13231,-13238,-13243,-13237,-13246,-13232,-13231,-13227,-13215,-13235,-13229,-13213,-13190,-13170,-13150,-13119,-13118,-13069,-13076,-13050,-13019,-13009,-12999,-12968,-12954,-12964,-12920,-12897,-12906,-12872,-12885,-12842,-12830,-12807,-12828,-12781,-12763,-12754,-12751,-12722,-12690,-12682,-12652,-12647,-12607,-12584,-12582,-12538,-12538,-12523,-12512,-12491,-12541,-12544,-12599,-12699,-12789,-12854,-12932,-13010,-13069,-13118,-13149,-13165,-13180,-13193,-13171,-13170,-13165,-13153,-13161,-13175,-13159,-13140,-13129,-13124,-13124,-13124,-13127,-13120,-13146,-13145,-13168,-13145,-13164,-13168,-13149,-13152,-13151,-13150,-13154,-13146,-13114,-13103,-13076,-13077,-13053,-13015,-12995,-12992,-12979,-12972,-12965,-12944,-12930,-12938,-12915,-12895,-12887,-12881,-12860,-12856,-12848,-12829,-12832,-12823,-12826,-12814,-12790,-12776,-12741,-12745,-12730,-12724,-12695,-12674,-12682,-12659,-12667,-12640,-12619,-12623,-12590,-12577,-12593,-12627,-12676,-12763,-12843,-12931,-13028,-13098,-13170,-13224,-13279,-13306,-13291,-13315,-13310,-13289,-13277,-13316,-13292,-13302,-13296,-13296,-13274,-13269,-13262,-13265,-13273,-13259,-13270,-13275,-13291,-13302,-13326,-13312,-13306,-13315,-13308,-13287,-13287,-13263,-13231,-13227,-13202,-13172,-13149,-13123,-13097,-13068,-13067,-13056,-13016,-13006,-13013,-13001,-12978,-12964,-12934,-12916,-12912,-12873,-12886,-12871,-12853,-12850,-12836,-12816,-12801,-12777,-12754,-12756,-12730,-12729,-12713,-12697,-12683,-12675,-12655,-12647,-12656,-12629,-12608,-12611,-12622,-12643,-12721,-12796,-12877,-12996,-13080,-13154,-13230,-13282,-13318,-13340,-13322,-13335,-13346,-13319,-13311,-13304,-13288,-13275,-13269,-13278,-13249,-13240,-13221,-13228,-13220,-13223,-13231,-13233,-13229,-13250,-13237,-13242,-13256,-13243,-13229,-13223,-13211,-13197,-13197,-13157,-13144,-13132,-13109,-13100,-13065,-13060,-13051,-13019,-12985,-12977,-12958,-12926,-12905,-12893,-12853,-12851,-12814,-12794,-12762,-12743,-12706,-12695,-12675,-12648,-12625,-12587,-12561,-12546,-12539,-12532,-12492,-12480,-12451,-12416,-12398,-12375,-12350,-12369,-12379,-12407,-12460,-12576,-12690,-12755,-12860,-12935,-12997,-13040,-13064,-13082,-13102,-13088,-13087,-13086,-13047,-13029,-13017,-12982,-12950,-12933,-12913,-12876,-12877,-12854,-12858,-12856,-12869,-12886,-12880,-12879,-12898,-12916,-12896,-12913,-12924,-12913,-12907,-12902,-12896,-12857,-12834,-12832,-12820,-12786,-12782,-12770,-12768,-12758,-12760,-12731,-12718,-12729,-12720,-12717,-12721,-12742,-12730,-12729,-12721,-12735,-12736,-12766,-12745,-12740,-12729,-12736,-12739,-12711,-12705,-12686,-12658,-12654,-12635,-12627,-12624,-12617,-12635,-12693,-12770,-12869,-12973,-13084,-13217,-13336,-13428,-13514,-13581,-13597,-13636,-13656,-13656,-13658,-13655,-13651,-13614,-13601,-13576,-13553,-13531,-13518,-13533,-13541,-13544,-13560,-13570,-13567,-13608,-13615,-13648,-13641,-13650,-13639,-13638,-13630,-13627,-13593,-13572,-13541,-13531,-13492,-13467,-13450,-13416,-13414,-13394,-13390,-13357,-13358,-13343,-13339,-13325,-13309,-13296,-13265,-13266,-13257,-13258,-13210,-13197,-13177,-13159,-13136,-13122,-13098,-13069,-13086,-13050,-13014,-13016,-12998,-12956,-12966,-12945,-12966,-13025,-13094,-13199,-13348,-13455,-13597,-13726,-13836,-13926,-13998,-14033,-14050,-14089,-14078,-14102,-14095,-14091,-14092,-14093,-14107,-14118,-14110,-14101,-14120,-14135,-14131,-14162,-14171,-14168,-14178,-14215,-14219,-14221,-14226,-14226,-14210,-14186,-14166,-14149,-14124,-14110,-14086,-14058,-14017,-14012,-13996,-13974,-13980,-13969,-13945,-13948,-13940,-13946,-13913,-13891,-13906,-13887,-13875,-13879,-13865,-13857,-13858,-13840,-13832,-13805,-13799,-13752,-13738,-13704,-13685,-13661,-13606,-13582,-13571,-13529,-13512,-13502,-13506,-13563,-13629,-13750,-13880,-14001,-14157,-14285,-14366,-14455,-14505,-14543,-14580,-14560,-14580,-14554,-14531,-14525,-14500,-14495,-14481,-14453,-14452,-14416,-14377,-14369,-14372,-14349,-14354,-14340,-14362,-14371,-14377,-14373,-14383,-14391,-14375,-14351,-14331,-14314,-14290,-14252,-14243,-14191,-14161,-14134,-14094,-14067,-14045,-14029,-14006,-13995,-13957,-13961,-13954,-13918,-13938,-13916,-13916,-13866,-13851,-13826,-13800,-13795,-13754,-13739,-13705,-13664,-13677,-13643,-13603,-13576,-13560,-13520,-13519,-13489,-13441,-13425,-13396,-13362,-13349,-13316,-13366,-13415,-13512,-13601,-13753,-13884,-13982,-14072,-14142,-14183,-14201,-14210,-14183,-14166,-14160,-14153,-14137,-14127,-14142,-14139,-14122,-14104,-14090,-14073,-14044,-14050,-14060,-14058,-14069,-14075,-14089,-14105,-14096,-14096,-14068,-14046,-14034,-14019,-14004,-13999,-13941,-13929,-13916,-13890,-13838,-13824,-13795,-13810,-13775,-13747,-13728,-13740,-13732,-13730,-13706,-13690,-13691,-13699,-13676,-13680,-13662,-13655,-13608,-13620,-13615,-13574,-13568,-13543,-13544,-13520,-13512,-13483,-13452,-13450,-13407,-13401,-13397,-13383,-13386,-13410,-13483,-13561,-13663,-13795,-13926,-14055,-14142,-14202,-14272,-14314,-14322,-14307,-14300,-14322,-14295,-14259,-14242,-14227,-14220,-14187,-14171,-14158,-14156,-14143,-14142,-14144,-14179,-14181,-14210,-14221,-14217,-14214,-14185,-14167,-14143,-14101,-14075,-14043,-13979,-13971,-13905,-13884,-13862,-13849,-13803,-13781,-13764,-13729,-13672,-13676,-13657,-13609,-13590,-13536,-13501,-13486,-13423,-13411,-13368,-13329,-13302,-13299,-13265,-13255,-13249,-13218,-13222,-13220,-13212,-13164,-13156,-13144,-13129,-13115,-13104,-13076,-13070,-13064,-13086,-13150,-13263,-13375,-13500,-13630,-13758,-13852,-13949,-14001,-14053,-14078,-14108,-14097,-14123,-14120,-14116,-14137,-14154,-14170,-14143,-14185,-14165,-14152,-14169,-14142,-14173,-14179,-14189,-14177,-14195,-14192,-14200,-14213,-14203,-14217,-14177,-14170,-14154,-14134,-14096,-14074,-14045,-14031,-14021,-13989,-13968,-13937,-13930,-13924,-13900,-13863,-13851,-13836,-13831,-13820,-13795,-13800,-13756,-13751,-13736,-13701,-13676,-13659,-13637,-13594,-13551,-13506,-13489,-13426,-13412,-13381,-13358,-13308,-13311,-13300,-13273,-13282,-13234,-13226,-13233,-13287,-13372,-13459,-13584,-13740,-13858,-13945,-14032,-14084,-14113,-14143,-14144,-14160,-14158,-14128,-14114,-14115,-14110,-14086,-14091,-14088,-14088,-14070,-14059,-14065,-14061,-14036,-14045,-14056,-14057,-14058,-14044,-14025,-14050,-14012,-14005,-13979,-13984,-13949,-13932,-13902,-13875,-13848,-13843,-13813,-13786,-13747,-13736,-13733,-13715,-13709,-13694,-13691,-13703,-13706,-13690,-13682,-13696,-13687,-13693,-13682,-13687,-13691,-13675,-13677,-13641,-13633,-13638,-13599,-13585,-13560,-13547,-13498,-13477,-13445,-13426,-13420,-13411,-13428,-13492,-13574,-13697,-13837,-13944,-14076,-14171,-14252,-14295,-14346,-14340,-14364,-14346,-14343,-14323,-14320,-14299,-14283,-14268,-14231,-14190,-14161,-14125,-14089,-14100,-14090,-14079,-14077,-14102,-14098,-14100,-14106,-14113,-14110,-14094,-14079,-14089,-14057,-14050,-14024,-14021,-13989,-13990,-13948,-13929,-13933,-13912,-13889,-13894,-13857,-13862,-13863,-13838,-13860,-13835,-13825,-13812,-13799,-13786,-13775,-13776,-13738,-13745,-13730,-13712,-13696,-13672,-13640,-13638,-13602,-13568,-13553,-13528,-13515,-13536,-13583,-13638,-13739,-13859,-13968,-14094,-14194,-14290,-14362,-14388,-14428,-14442,-14444,-14429,-14420,-14415,-14397,-14361,-14366,-14339,-14311,-14262,-14247,-14221,-14193,-14184,-14149,-14144,-14158,-14134,-14116,-14106,-14073,-14033,-14005,-13978,-13948,-13899,-13878,-13825,-13806,-13771,-13704,-13691,-13640,-13586,-13551,-13513,-13503,-13494,-13484,-13473,-13462,-13456,-13476,-13486,-13442,-13453,-13399,-13374,-13347,-13295,-13265,-13232,-13197,-13184,-13131,-13138,-13105,-13085,-13078,-13053,-12996,-12961,-12920,-12898,-12888,-12850,-12877,-12924,-12975,-13085,-13187,-13307,-13413,-13519,-13575,-13647,-13663,-13687,-13675,-13677,-13663,-13655,-13655,-13652,-13659,-13659,-13694,-13680,-13664,-13636,-13623,-13621,-13592,-13591,-13589,-13613,-13609,-13627,-13657,-13653,-13655,-13656,-13653,-13640,-13652,-13624,-13595,-13554,-13515,-13500,-13477,-13440,-13403,-13407,-13353,-13319,-13308,-13277,-13228,-13209,-13167,-13110,-13080,-13056,-13017,-12952,-12926,-12897,-12882,-12827,-12814,-12800,-12767,-12736,-12697,-12666,-12644,-12595,-12566,-12527,-12507,-12482,-12443,-12417,-12381,-12369,-12344,-12278,-12286,-12302,-12310,-12348,-12407,-12470,-12561,-12648,-12736,-12806,-12861,-12908,-12933,-12954,-12963,-12974,-12980,-12976,-12989,-13000,-12971,-12964,-12974,-12945,-12961,-12962,-12953,-12957,-12986,-12989,-13018,-13036,-13039,-13067,-13060,-13086,-13080,-13072,-13076,-13082,-13070,-13072,-13073,-13085,-13086,-13079,-13111,-13091,-13118,-13118,-13141,-13138,-13148,-13160,-13165,-13157,-13130,-13086,-13059,-13054,-13010,-12982,-12966,-12937,-12909,-12879,-12860,-12807,-12794,-12751,-12706,-12683,-12665,-12629,-12607,-12563,-12524,-12512,-12491,-12464,-12425,-12417,-12427,-12453,-12498,-12565,-12627,-12703,-12755,-12854,-12878,-12912,-12956,-12975,-12986,-12993,-12970,-12974,-12964,-12963,-12946,-12978,-12964,-12961,-12929,-12937,-12940,-12914,-12912,-12896,-12905,-12912,-12915,-12901,-12909,-12883,-12873,-12849,-12850,-12847,-12849,-12837,-12809,-12812,-12792,-12780,-12768,-12754,-12737,-12728,-12717,-12706,-12694,-12675,-12661,-12648,-12632,-12623,-12609,-12619,-12615,-12583,-12582,-12557,-12553,-12563,-12549,-12536,-12507,-12501,-12477,-12472,-12454,-12446,-12432,-12427,-12399,-12390,-12339,-12355,-12365,-12337,-12330,-12316,-12301,-12281,-12252,-12247,-12261,-12303,-12361,-12425,-12496,-12588,-12658,-12741,-12786,-12826,-12845,-12878,-12908,-12911,-12897,-12901,-12927,-12925,-12944,-12964,-12945,-12967,-12961,-12973,-12955,-12942,-12924,-12941,-12930,-12933,-12920,-12920,-12930,-12924,-12927,-12912,-12908,-12896,-12889,-12851,-12864,-12830,-12824,-12811,-12784,-12768,-12757,-12746,-12713,-12722,-12712,-12697,-12678,-12679,-12664,-12665,-12657,-12643,-12629,-12605,-12596,-12596,-12570,-12584,-12547,-12515,-12498,-12506,-12487,-12460,-12450,-12433,-12441,-12406,-12408,-12404,-12366,-12355,-12331,-12353,-12308,-12302,-12271,-12261,-12256,-12231,-12226,-12215,-12264,-12305,-12380,-12460,-12530,-12611,-12669,-12718,-12761,-12777,-12772,-12803,-12805,-12811,-12802,-12805,-12795,-12821,-12828,-12816,-12815,-12822,-12790,-12786,-12793,-12798,-12776,-12779,-12763,-12771,-12777,-12792,-12761,-12762,-12778,-12763,-12749,-12749,-12746,-12716,-12709,-12686,-12667,-12658,-12628,-12638,-12617,-12573,-12610,-12581,-12577,-12557,-12536,-12512,-12508,-12516,-12510,-12503,-12483,-12473,-12456,-12432,-12431,-12421,-12408,-12388,-12383,-12362,-12372,-12350,-12347,-12332,-12319,-12301,-12275,-12268,-12252,-12243,-12220,-12217,-12202,-12194,-12178,-12182,-12207,-12236,-12282,-12355,-12447,-12490,-12564,-12649,-12707,-12759,-12761,-12801,-12819,-12811,-12822,-12819,-12825,-12837,-12833,-12850,-12844,-12843,-12841,-12825,-12830,-12838,-12844,-12835,-12842,-12867,-12876,-12877,-12874,-12899,-12903,-12902,-12894,-12903,-12895,-12894,-12844,-12839,-12834,-12821,-12825,-12804,-12804,-12789,-12773,-12761,-12736,-12716,-12718,-12720,-12719,-12703,-12683,-12696,-12675,-12688,-12670,-12681,-12653,-12661,-12653,-12651,-12626,-12603,-12598,-12596,-12597,-12556,-12578,-12549,-12530,-12499,-12489,-12499,-12469,-12476,-12490,-12510,-12570,-12654,-12761,-12851,-12947,-13030,-13129,-13193,-13249,-13278,-13329,-13319,-13333,-13360,-13356,-13353,-13367,-13366,-13362,-13352,-13339,-13350,-13345,-13349,-13353,-13372,-13370,-13362,-13376,-13388,-13395,-13385,-13403,-13433,-13414,-13427,-13395,-13405,-13383,-13361,-13352,-13340,-13309,-13304,-13278,-13298,-13264,-13254,-13240,-13211,-13190,-13199,-13175,-13163,-13174,-13149,-13158,-13112,-13125,-13104,-13108,-13081,-13080,-13055,-13044,-13053,-13009,-13009,-13025,-12985,-12967,-12960,-12946,-12921,-12898,-12881,-12877,-12870,-12854,-12843,-12858,-12836,-12907,-12980,-13091,-13204,-13347,-13463,-13550,-13662,-13739,-13795,-13822,-13857,-13879,-13872,-13861,-13871,-13891,-13865,-13879,-13892,-13894,-13896,-13879,-13836,-13859,-13858,-13876,-13859,-13876,-13869,-13893,-13872,-13909,-13897,-13909,-13897,-13912,-13881,-13895,-13876,-13856,-13820,-13808,-13793,-13806,-13765,-13742,-13725,-13703,-13698,-13685,-13665,-13654,-13671,-13639,-13637,-13613,-13609,-13608,-13580,-13582,-13582,-13569,-13558,-13554,-13520,-13513,-13498,-13483,-13455,-13437,-13437,-13410,-13412,-13394,-13380,-13354,-13362,-13326,-13319,-13298,-13291,-13275,-13304,-13355,-13434,-13540,-13654,-13776,-13920,-14011,-14123,-14200,-14243,-14288,-14331,-14311,-14315,-14313,-14307,-14293,-14277,-14289,-14275,-14260,-14250,-14250,-14241,-14233,-14249,-14260,-14259,-14283,-14290,-14292,-14306,-14312,-14320,-14298,-14284,-14307,-14285,-14280,-14260,-14251,-14234,-14202,-14197,-14158,-14155,-14128,-14110,-14089,-14078,-14052,-14037,-14038,-14012,-14009,-14011,-13986,-13980,-13978,-13953,-13930,-13940,-13925,-13896,-13923,-13910,-13893,-13867,-13853,-13835,-13820,-13808,-13778,-13752,-13744,-13718,-13709,-13683,-13646,-13642,-13633,-13614,-13623,-13683,-13743,-13857,-13961,-14092,-14213,-14325,-14398,-14479,-14529,-14522,-14552,-14547,-14534,-14507,-14462,-14466,-14444,-14416,-14403,-14381,-14355,-14338,-14321,-14331,-14324,-14324,-14340,-14358,-14364,-14361,-14372,-14398,-14406,-14408,-14394,-14368,-14360,-14346,-14344,-14295,-14252,-14246,-14209,-14185,-14168,-14157,-14137,-14123,-14116,-14092,-14078,-14070,-14081,-14080,-14062,-14040,-14053,-14025,-14023,-14008,-13965,-13983,-13964,-13947,-13915,-13899,-13875,-13849,-13836,-13808,-13782,-13774,-13753,-13735,-13723,-13753,-13775,-13841,-13945,-14048,-14156,-14274,-14374,-14465,-14531,-14585,-14620,-14614,-14624,-14624,-14605,-14571,-14570,-14534,-14513,-14505,-14462,-14443,-14420,-14396,-14394,-14399,-14405,-14402,-14439,-14434,-14478,-14487,-14485,-14502,-14513,-14494,-14490,-14458,-14456,-14444,-14419,-14411,-14375,-14365,-14333,-14323,-14295,-14263,-14260,-14249,-14225,-14228,-14196,-14205,-14185,-14172,-14190,-14179,-14168,-14155,-14163,-14147,-14148,-14142,-14118,-14096,-14074,-14027,-14021,-14007,-13976,-13971,-13967,-14006,-14053,-14130,-14268,-14366,-14514,-14637,-14738,-14825,-14884,-14932,-14957,-14978,-14985,-14970,-14972,-14929,-14948,-14921,-14895,-14899,-14883,-14857,-14859,-14835,-14818,-14822,-14821,-14840,-14860,-14868,-14868,-14876,-14897,-14911,-14911,-14914,-14893,-14871,-14864,-14855,-14845,-14816,-14794,-14777,-14747,-14735,-14708,-14695,-14682,-14656,-14638,-14639,-14618,-14615,-14612,-14603,-14576,-14589,-14578,-14555,-14553,-14541,-14524,-14501,-14478,-14456,-14438,-14419,-14385,-14365,-14354,-14358,-14393,-14480,-14599,-14710,-14851,-14995,-15120,-15233,-15315,-15381,-15191,-15206,-15218,-15211,-15234,-15217,-15219,-15232,-15215,-15229,-15248,-15222,-15209,-15191,-15167,-15148,-15141,-15147,-15135,-15120,-15123,-15125,-15139,-15110,-15098,-15089,-15087,-15055,-15042,-14998,-14992,-14948,-14921,-14917,-14874,-14858,-14827,-14804,-14778,-14757,-14740,-14721,-14698,-14672,-14665,-14648,-14638,-14620,-14599,-14588,-14582,-14573,-14551,-14525,-14504,-14491,-14478,-14450,-14416,-14380,-14360,-14333,-14326,-14290,-14301,-14300,-14354,-14449,-14566,-14692,-14839,-14959,-15077,-15180,-15241,-15293,-15326,-15319,-15339,-15353,-15337,-15360,-15358,-15361,-15379,-15386,-15392,-15369,-15352,-15350,-15308,-15315,-15288,-15269,-15263,-15278,-15284,-15262,-15264,-15262,-15247,-15238,-15226,-15201,-15199,-15175,-15169,-15155,-15117,-15116,-15091,-15080,-15083,-15049,-15065,-15060,-15038,-15053,-15046,-15058,-15073,-15075,-15069,-15079,-15057,-15081,-15099,-15092,-15098,-15086,-15077,-15062,-15065,-15041,-15036,-15014,-14993,-14971,-14953,-14929,-14914,-14882,-14878,-14856,-14845,-14872,-14925,-15016,-15141,-15261,-15402,-15557,-15683,-15762,-15843,-15904,-15952,-15967,-15978,-15991,-15990,-16011,-15990,-15979,-15978,-15952,-15931,-15892,-15877,-15838,-15821,-15763,-15725,-15717,-15709,-15664,-15665,-15645,-15627,-15610,-15608,-15573,-15558,-15534,-15525,-15490,-15473,-15431,-15390,-15368,-15362,-15326,-15300,-15260,-15266,-15248,-15203,-15193,-15174,-15146,-15130,-15101,-15086,-15090,-15061,-15049,-15040,-15006,-15012,-14981,-14992,-14956,-14950,-14905,-14898,-14884,-14875,-14854,-14813,-14804,-14773,-14750,-14744,-14697,-14654,-14647,-14611,-14591,-14580,-14593,-14590,-14635,-14739,-14840,-14943,-15056,-15152,-15233,-15305,-15365,-15392,-15412,-15401,-15446,-15404,-15411,-15395,-15398,-15405,-15407,-15394,-15362,-15340,-15330,-15325,-15293,-15296,-15305,-15274,-15285,-15292,-15267,-15256,-15268,-15271,-15268,-15261,-15245,-15225,-15192,-15178,-15155,-15139,-15107,-15085,-15068,-15043,-15018,-14986,-14971,-14947,-14945,-14926,-14914,-14899,-14906,-14882,-14878,-14884,-14852,-14850,-14841,-14819,-14820,-14799,-14799,-14752,-14769,-14743,-14741,-14708,-14674,-14668,-14656,-14624,-14613,-14600,-14587,-14598,-14638,-14676,-14767,-14874,-14974,-15063,-15156,-15220,-15287,-15336,-15344,-15349,-15349,-15345,-15341,-15317,-15303,-15322,-15293,-15255,-15247,-15217,-15197,-15168,-15168,-15133,-15143,-15131,-15121,-15121,-15101,-15107,-15119,-15083,-15087,-15076,-15064,-15042,-15018,-14993,-14972,-14931,-14932,-14880,-14887,-14842,-14800,-14809,-14788,-14755,-14749,-14715,-14705,-14685,-14651,-14655,-14674,-14638,-14624,-14611,-14606,-14572,-14569,-14526,-14521,-14515,-14480,-14447,-14429,-14425,-14386,-14354,-14336,-14345,-14330,-14331,-14367,-14421,-14501,-14615,-14742,-14839,-14931,-15013,-15073,-15122,-15151,-15189,-15183,-15172,-15172,-15175,-15176,-15171,-15144,-15146,-15123,-15114,-15086,-15069,-15060,-15051,-15038,-15026,-15029,-15043,-15037,-15043,-15049,-15029,-15030,-15008,-14993,-14960,-14947,-14905,-14912,-14856,-14846,-14802,-14783,-14761,-14748,-14738,-14718,-14712,-14689,-14686,-14637,-14638,-14620,-14624,-14603,-14605,-14582,-14568,-14549,-14534,-14528,-14486,-14474,-14438,-14402,-14368,-14343,-14294,-14274,-14240,-14224,-14164,-14147,-14150,-14141,-14176,-14245,-14315,-14409,-14524,-14628,-14756,-14825,-14877,-14923,-14926,-14954,-14975,-14975,-14952,-14948,-14964,-14966,-15002,-14981,-14997,-14979,-14964,-14978,-14979,-14969,-14979,-14991,-15012,-15022,-15046,-15076,-15114,-15119,-15184,-15194,-15226,-15237,-15222,-15224,-15218,-15181,-15131,-15102,-15039,-15003,-14972,-14936,-14908,-14855,-14844,-14805,-14767,-14743,-14722,-14680,-14642,-14580,-14577,-14542,-14534,-14503,-14463,-14439,-14422,-14394,-14358,-14338,-14327,-14285,-14237,-14225,-14200,-14161,-14160,-14105,-14109,-14090,-14107,-14148,-14200,-14317,-14418,-14515,-14632,-14713,-14782,-14837,-14867,-14869,-14877,-14885,-14863,-14867,-14832,-14815,-14794,-14792,-14766,-14751,-14717,-14728,-14705,-14709,-14706,-14702,-14708,-14731,-14735,-14765,-14763,-14745,-14748,-14742,-14751,-14718,-14707,-14677,-14653,-14614,-14609,-14578,-14532,-14541,-14488,-14457,-14456,-14427,-14385,-14365,-14351,-14335,-14316,-14294,-14280,-14253,-14234,-14206,-14194,-14167,-14144,-14130,-14115,-14083,-14063,-14034,-14025,-13997,-13970,-13945,-13915,-13888,-13870,-13851,-13835,-13804,-13811,-13833,-13863,-13928,-14011,-14115,-14213,-14322,-14402,-14486,-14544,-14571,-14589,-14593,-14602,-14575,-14558,-14545,-14526,-14503,-14499,-14496,-14462,-14443,-14427,-14391,-14389,-14375,-14388,-14383,-14380,-14388,-14396,-14385,-14379,-14369,-14384,-14363,-14349,-14335,-14310,-14286,-14277,-14241,-14202,-14191,-14175,-14151,-14124,-14089,-14081,-14055,-14039,-14023,-14018,-13976,-13972,-13941,-13950,-13941,-13920,-13886,-13886,-13885,-13851,-13835,-13846,-13812,-13806,-13794,-13769,-13750,-13721,-13687,-13672,-13647,-13635,-13647,-13658,-13737,-13818,-13898,-14020,-14099,-14185,-14247,-14308,-14338,-14383,-14378,-14385,-14378,-14367,-14359,-14325,-14314,-14309,-14288,-14249,-14239,-14232,-14219,-14193,-14209,-14193,-14211,-14220,-14241,-14236,-14259,-14234,-14254,-14237,-14219,-14230,-14210,-14217,-14177,-14165,-14128,-14121,-14089,-14070,-14050,-14032,-14005,-14006,-13982,-13979,-13967,-13928,-13943,-13941,-13899,-13916,-13894,-13899,-13890,-13872,-13850,-13844,-13839,-13819,-13816,-13773,-13764,-13752,-13721,-13693,-13695,-13655,-13626,-13643,-13645,-13693,-13777,-13875,-13971,-14094,-14207,-14296,-14380,-14443,-14483,-14485,-14542,-14521,-14524,-14506,-14507,-14482,-14472,-14473,-14461,-14449,-14407,-14387,-14386,-14365,-14379,-14372,-14376,-14369,-14364,-14390,-14400,-14395,-14401,-14396,-14385,-14360,-14358,-14334,-14330,-14286,-14268,-14245,-14212,-14185,-14187,-14146,-14133,-14120,-14117,-14073,-14071,-14065,-14041,-14051,-14011,-14011,-13983,-13986,-13978,-13968,-13963,-13953,-13942,-13915,-13913,-13902,-13878,-13847,-13827,-13818,-13806,-13784,-13756,-13731,-13721,-13713,-13712,-13750,-13826,-13926,-14023,-14136,-14268,-14348,-14435,-14497,-14529,-14566,-14569,-14583,-14570,-14538,-14554,-14518,-14509,-14504,-14467,-14444,-14434,-14411,-14414,-14391,-14398,-14379,-14382,-14388,-14397,-14395,-14407,-14412,-14429,-14421,-14401,-14383,-14361,-14338,-14319,-14289,-14266,-14247,-14226,-14200,-14183,-14147,-14139,-14115,-14110,-14081,-14069,-14051,-14039,-14017,-14027,-14022,-13990,-13995,-13966,-13969,-13920,-13932,-13885,-13892,-13865,-13852,-13852,-13800,-13796,-13768,-13763,-13723,-13710,-13682,-13664,-13662,-13695,-13738,-13820,-13920,-14014,-14135,-14221,-14310,-14390,-14421,-14447,-14459,-14449,-14455,-14433,-14410,-14413,-14380,-14365,-14328,-14319,-14283,-14257,-14244,-14226,-14216,-14206,-14211,-14193,-14219,-14233,-14231,-14220,-14213,-14199,-14193,-14189,-14161,-14132,-14105,-14078,-14052,-14041,-14007,-13984,-13947,-13944,-13911,-13905,-13870,-13861,-13826,-13813,-13815,-13789,-13793,-13785,-13771,-13759,-13740,-13704,-13698,-13685,-13681,-13668,-13666,-13630,-13613,-13580,-13560,-13539,-13512,-13500,-13478,-13459,-13449,-13427,-13449,-13494,-13559,-13669,-13749,-13851,-13957,-14044,-14120,-14171,-14199,-14223,-14222,-14215,-14213,-14195,-14187,-14181,-14149,-14124,-14099,-14078,-14070,-14067,-14049,-14029,-14050,-14045,-14061,-14081,-14086,-14091,-14096,-14113,-14128,-14094,-14110,-14089,-14074,-14056,-14048,-14003,-13992,-13974,-13975,-13941,-13919,-13915,-13878,-13877,-13879,-13847,-13823,-13834,-13832,-13807,-13794,-13787,-13791,-13795,-13754,-13761,-13748,-13718,-13731,-13705,-13679,-13673,-13653,-13643,-13627,-13625,-13607,-13594,-13620,-13670,-13747,-13832,-13940,-14032,-14139,-14218,-14285,-14347,-14388,-14420,-14396,-14399,-14411,-14397,-14385,-14362,-14361,-14346,-14324,-14286,-14268,-14261,-14250,-14240,-14245,-14216,-14232,-14232,-14226,-14246,-14266,-14250,-14251,-14223,-14208,-14205,-14174,-14127,-14124,-14095,-14092,-14047,-14046,-14012,-13986,-13982,-13955,-13940,-13910,-13922,-13916,-13884,-13873,-13876,-13839,-13833,-13807,-13817,-13796,-13788,-13788,-13765,-13741,-13720,-13703,-13672,-13689,-13629,-13617,-13610,-13608,-13571,-13565,-13521,-13555,-13587,-13667,-13758,-13861,-13983,-14078,-14230,-14286,-14334,-14383,-14395,-14420,-14427,-14428,-14405,-14399,-14404,-14396,-14397,-14353,-14326,-14310,-14290,-14282,-14271,-14260,-14262,-14265,-14273,-14273,-14309,-14294,-14292,-14287,-14268,-14269,-14268,-14237,-14213,-14183,-14169,-14157,-14117,-14104,-14079,-14053,-14032,-13997,-13976,-13983,-13974,-13944,-13926,-13917,-13897,-13901,-13889,-13863,-13850,-13841,-13820,-13820,-13778,-13769,-13758,-13742,-13724,-13696,-13680,-13670,-13636,-13624,-13588,-13594,-13587,-13609,-13682,-13754,-13849,-13969,-14057,-14165,-14231,-14293,-14344,-14371,-14355,-14373,-14375,-14357,-14335,-14342,-14328,-14303,-14285,-14268,-14278,-14227,-14216,-14218,-14210,-14208,-14219,-14226,-14225,-14207,-14220,-14210,-14209,-14204,-14180,-14151,-14148,-14128,-14087,-14057,-14016,-14012,-13977,-13958,-13927,-13924,-13906,-13880,-13851,-13838,-13835,-13827,-13801,-13769,-13764,-13743,-13752,-13751,-13730,-13719,-13697,-13689,-13669,-13654,-13641,-13613,-13575,-13558,-13545,-13513,-13517,-13474,-13492,-13504,-13526,-13597,-13710,-13772,-13894,-13978,-14058,-14110,-14150,-14194,-14192,-14201,-14215,-14198,-14204,-14199,-14185,-14175,-14180,-14180,-14146,-14129,-14110,-14096,-14093,-14103,-14108,-14109,-14105,-14090,-14115,-14100,-14098,-14088,-14092,-14084,-14077,-14047,-14024,-13984,-13962,-13938,-13921,-13897,-13884,-13846,-13835,-13814,-13795,-13794,-13769,-13735,-13740,-13713,-13697,-13687,-13656,-13663,-13626,-13634,-13609,-13575,-13561,-13539,-13513,-13507,-13470,-13460,-13450,-13437,-13410,-13406,-13386,-13371,-13327,-13336,-13320,-13355,-13409,-13493,-13565,-13683,-13787,-13867,-13968,-14035,-14089,-14115,-14133,-14176,-14154,-14146,-14163,-14153,-14153,-14158,-14135,-14142,-14132,-14110,-14103,-14094,-14088,-14075,-14084,-14077,-14090,-14107,-14092,-14086,-14099,-14074,-14065,-14050,-14030,-14004,-13996,-13978,-13947,-13919,-13919,-13904,-13860,-13861,-13823,-13810,-13804,-13787,-13777,-13738,-13755,-13721,-13741,-13742,-13718,-13716,-13686,-13677,-13669,-13656,-13624,-13605,-13622,-13595,-13565,-13539,-13506,-13498,-13477,-13451,-13440,-13406,-13416,-13385,-13385,-13389,-13437,-13481,-13591,-13701,-13794,-13897,-13988,-14088,-14137,-14151,-14201,-14197,-14208,-14200,-14208,-14207,-14204,-14218,-14212,-14206,-14183,-14190,-14164,-14160,-14149,-14128,-14125,-14099,-14117,-14116,-14117,-14134,-14112,-14112,-14095,-14097,-14056,-14054,-14026,-14000,-13974,-13966,-13927,-13897,-13869,-13854,-13841,-13819,-13790,-13800,-13774,-13759,-13747,-13737,-13723,-13706,-13685,-13706,-13690,-13679,-13675,-13642,-13636,-13618,-13596,-13580,-13568,-13537,-13522,-13505,-13494,-13449,-13435,-13395,-13347,-13334,-13337,-13314,-13313,-13290,-13514,-13553,-13627,-13706,-13783,-13886,-13984,-14041,-14105,-14140,-14158,-14173,-14174,-14198,-14178,-14174,-14169,-14157,-14159,-14124,-14114,-14082,-14067,-14052,-14024,-14052,-14035,-14027,-14020,-14023,-14006,-14013,-14023,-14029,-14013,-14010,-13990,-13978,-13949,-13918,-13899,-13883,-13864,-13846,-13832,-13817,-13784,-13761,-13752,-13730,-13713,-13697,-13691,-13681,-13667,-13651,-13639,-13646,-13631,-13621,-13600,-13574,-13551,-13534,-13515,-13513,-13485,-13464,-13464,-13450,-13414,-13382,-13370,-13348,-13329,-13312,-13343,-13370,-13405,-13473,-13546,-13621,-13721,-13785,-13841,-13886,-13911,-13955,-13956,-13963,-13970,-13979,-13979,-14002,-13970,-13978,-13964,-13949,-13921,-13900,-13875,-13835,-13832,-13839,-13822,-13826,-13805,-13809,-13792,-13798,-13782,-13799,-13775,-13764,-13756,-13750,-13732,-13710,-13681,-13647,-13614,-13596,-13554,-13537,-13517,-13507,-13484,-13452,-13449,-13441,-13411,-13402,-13385,-13377,-13361,-13355,-13334,-13344,-13309,-13297,-13263,-13273,-13247,-13219,-13195,-13179,-13160,-13135,-13108,-13099,-13055,-13060,-13011,-13016,-12987,-12999,-13012,-13047,-13081,-13151,-13224,-13276,-13355,-13425,-13502,-13540,-13563,-13591,-13603,-13636,-13637,-13632,-13661,-13673,-13696,-13688,-13670,-13666,-13661,-13640,-13658,-13633,-13609,-13617,-13571,-13582,-13570,-13585,-13577,-13556,-13571,-13548,-13531,-13510,-13508,-13505,-13467,-13470,-13455,-13419,-13416,-13371,-13374,-13356,-13337,-13331,-13313,-13318,-13287,-13288,-13281,-13251,-13252,-13239,-13206,-13195,-13179,-13181,-13187,-13149,-13129,-13127,-13112,-13084,-13077,-13052,-13029,-13035,-13016,-12996,-12986,-12960,-12938,-12920,-12913,-12908,-12872,-12867,-12850,-12822,-12816,-12783,-12790,-12767,-12793,-12842,-12890,-12979,-13056,-13099,-13168,-13234,-13246,-13283,-13308,-13316,-13323,-13310,-13313,-13326,-13350,-13333,-13326,-13326,-13328,-13335,-13306,-13308,-13306,-13293,-13265,-13252,-13252,-13263,-13259,-13245,-13251,-13225,-13233,-13237,-13207,-13224,-13191,-13187,-13159,-13150,-13141,-13117,-13111,-13103,-13071,-13064,-13057,-13051,-13035,-13034,-13015,-13001,-12999,-12977,-12977,-12950,-12948,-12939,-12920,-12909,-12904,-12889,-12864,-12852,-12836,-12812,-12812,-12794,-12776,-12801,-12766,-12745,-12722,-12719,-12703,-12675,-12690,-12653,-12645,-12635,-12656,-12639,-12656,-12678,-12731,-12787,-12849,-12933,-12971,-13026,-13083,-13089,-13155,-13144,-13154,-13148,-13173,-13190,-13173,-13165,-13184,-13179,-13168,-13159,-13154,-13122,-13137,-13106,-13126,-13109,-13103,-13097,-13116,-13100,-13123,-13103,-13104,-13073,-13085,-13076,-13054,-13059,-13047,-13030,-13023,-12998,-13001,-12982,-12986,-12939,-12955,-12929,-12933,-12902,-12909,-12902,-12891,-12876,-12854,-12860,-12842,-12847,-12825,-12819,-12785,-12781,-12795,-12767,-12767,-12741,-12723,-12711,-12705,-12693,-12669,-12675,-12648,-12625,-12620,-12589,-12603,-12552,-12544,-12519,-12527,-12527,-12548,-12583,-12657,-12725,-12795,-12847,-12912,-12949,-12994,-13023,-13042,-13057,-13054,-13066,-13081,-13086,-13086,-13097,-13100,-13121,-13129,-13129,-13104,-13096,-13091,-13086,-13088,-13080,-13080,-13083,-13092,-13096,-13098,-13071,-13074,-13088,-13069,-13078,-13068,-13062,-13059,-13032,-13030,-13016,-12997,-13000,-12994,-12955,-12968,-12956,-12941,-12939,-12945,-12934,-12930,-12910,-12914,-12885,-12901,-12864,-12877,-12873,-12848,-12823,-12846,-12795,-12816,-12800,-12786,-12772,-12751,-12725,-12739,-12695,-12700,-12695,-12681,-12657,-12645,-12612,-12614,-12581,-12565,-12563,-12562,-12578,-12596,-12658,-12719,-12792,-12821,-12910,-12974,-13013,-13048,-13074,-13111,-13139,-13145,-13129,-13124,-13151,-13148,-13129,-13135,-13143,-13150,-13145,-13146,-13138,-13148,-13132,-13121,-13142,-13156,-13156,-13157,-13151,-13143,-13160,-13155,-13164,-13137,-13122,-13119,-13111,-13083,-13075,-13056,-13065,-13015,-13015,-13009,-12995,-12982,-12969,-12979,-12958,-12943,-12956,-12944,-12928,-12910,-12900,-12906,-12894,-12888,-12890,-12873,-12862,-12857,-12833,-12834,-12811,-12798,-12781,-12767,-12754,-12736,-12728,-12703,-12700,-12679,-12677,-12672,-12692,-12717,-12784,-12869,-12917,-12994,-13073,-13130,-13181,-13219,-13260,-13292,-13298,-13307,-13313,-13328,-13323,-13316,-13345,-13335,-13340,-13332,-13316,-13314,-13324,-13312,-13313,-13318,-13310,-13321,-13319,-13349,-13335,-13357,-13331,-13346,-13343,-13326,-13333,-13311,-13319,-13284,-13275,-13244,-13242,-13238,-13247,-13224,-13198,-13192,-13181,-13157,-13156,-13149,-13144,-13123,-13130,-13118,-13101,-13080,-13103,-13077,-13070,-13062,-13024,-13015,-13032,-13015,-12994,-12983,-12967,-12965,-12937,-12905,-12901,-12883,-12851,-12828,-12843,-12870,-12922,-12970,-13076,-13160,-13231,-13319,-13422,-13483,-13536,-13574,-13599,-13602,-13621,-13631,-13623,-13640,-13628,-13659,-13667,-13664,-13655,-13652,-13640,-13639,-13641,-13623,-13595,-13601,-13610,-13602,-13607,-13628,-13630,-13619,-13616,-13621,-13604,-13586,-13578,-13558,-13525,-13516,-13497,-13479,-13450,-13464,-13439,-13429,-13397,-13392,-13386,-13378,-13379,-13369,-13366,-13343,-13325,-13319,-13308,-13305,-13291,-13268,-13252,-13244,-13241,-13229,-13204,-13210,-13189,-13175,-13164,-13133,-13125,-13110,-13103,-13093,-13067,-13087,-13124,-13173,-13236,-13335,-13406,-13510,-13579,-13649,-13686,-13727,-13766,-13770,-13782,-13777,-13773,-13770,-13764,-13754,-13766,-13742,-13736,-13721,-13712,-13673,-13681,-13667,-13660,-13668,-13676,-13677,-13671,-13683,-13687,-13687,-13686,-13664,-13649,-13637,-13597,-13600,-13567,-13555,-13551,-13526,-13503,-13469,-13464,-13453,-13449,-13422,-13417,-13400,-13382,-13353,-13325,-13327,-13327,-13309,-13275,-13286,-13274,-13268,-13243,-13212,-13205,-13166,-13170,-13135,-13126,-13089,-13097,-13030,-13040,-13039,-13015,-13044,-13101,-13171,-13251,-13313,-13403,-13453,-13524,-13555,-13597,-13589,-13613,-13597,-13612,-13595,-13603,-13600,-13589,-13574,-13552,-13540,-13521,-13505,-13508,-13490,-13468,-13461,-13465,-13468,-13476,-13472,-13483,-13474,-13474,-13471,-13474,-13445,-13428,-13451,-13420,-13398,-13376,-13350,-13347,-13317,-13300,-13279,-13269,-13258,-13210,-13226,-13213,-13183,-13171,-13144,-13122,-13096,-13092,-13082,-13063,-13061,-13058,-13014,-13003,-12978,-12940,-12951,-12922,-12898,-12893,-12884,-12866,-12852,-12836,-12833,-12844,-12901,-12961,-13038,-13091,-13178,-13260,-13288,-13338,-13374,-13393,-13434,-13420,-13426,-13430,-13404,-13417,-13424,-13418,-13420,-13396,-13408,-13400,-13364,-13372,-13362,-13335,-13334,-13341,-13330,-13333,-13341,-13330,-13354,-13333,-13327,-13309,-13313,-13282,-13300,-13279,-13233,-13232,-13217,-13211,-13176,-13153,-13147,-13129,-13116,-13104,-13077,-13066,-13062,-13038,-13068,-13025,-13029,-13009,-12990,-12982,-12977,-12933,-12925,-12911,-12876,-12862,-12844,-12807,-12789,-12769,-12759,-12723,-12696,-12694,-12659,-12646,-12643,-12645,-12640,-12681,-12771,-12842,-12894,-12936,-13019,-13055,-13115,-13128,-13141,-13148,-13156,-13166,-13157,-13173,-13155,-13186,-13187,-13157,-13151,-13152,-13145,-13133,-13115,-13118,-13100,-13110,-13083,-13092,-13090,-13082,-13102,-13074,-13077,-13069,-13068,-13067,-13043,-13027,-13010,-13007,-12985,-12983,-12959,-12946,-12919,-12907,-12880,-12886,-12879,-12849,-12847,-12823,-12833,-12808,-12784,-12784,-12777,-12761,-12751,-12740,-12725,-12714,-12694,-12680,-12660,-12662,-12625,-12592,-12598,-12585,-12576,-12551,-12538,-12518,-12505,-12482,-12466,-12464,-12461,-12444,-12463,-12516,-12564,-12632,-12695,-12760,-12814,-12859,-12878,-12913,-12922,-12951,-12930,-12946,-12944,-12947,-12940,-12932,-12946,-12925,-12922,-12926,-12900,-12880,-12898,-12881,-12888,-12885,-12865,-12876,-12882,-12873,-12868,-12899,-12892,-12873,-12875,-12900,-12854,-12834,-12816,-12807,-12803,-12772,-12773,-12751,-12753,-12747,-12705,-12708,-12705,-12695,-12670,-12666,-12656,-12659,-12633,-12618,-12613,-12603,-12608,-12598,-12582,-12558,-12533,-12550,-12514,-12524,-12476,-12477,-12469,-12444,-12441,-12416,-12412,-12382,-12376,-12353,-12369,-12372,-12393,-12443,-12484,-12578,-12634,-12704,-12747,-12787,-12826,-12856,-12886,-12905,-12891,-12896,-12921,-12916,-12926,-12940,-12912,-12939,-12940,-12926,-12923,-12919,-12905,-12890,-12885,-12914,-12895,-12901,-12898,-12906,-12919,-12910,-12902,-12892,-12888,-12884,-12888,-12868,-12870,-12807,-12816,-12805,-12788,-12774,-12781,-12776,-12760,-12729,-12729,-12745,-12703,-12704,-12682,-12671,-12685,-12655,-12635,-12648,-12630,-12610,-12620,-12597,-12585,-12571,-12577,-12553,-12532,-12528,-12529,-12500,-12483,-12485,-12477,-12447,-12423,-12435,-12412,-12396,-12349,-12389,-12387,-12428,-12466,-12534,-12626,-12702,-12792,-12862,-12910,-12966,-12989,-13032,-13039,-13058,-13052,-13072,-13084,-13078,-13081,-13097,-13100,-13107,-13098,-13076,-13072,-13062,-13049,-13043,-13035,-13053,-13058,-13075,-13072,-13048,-13055,-13066,-13059,-13053,-13066,-13038,-13010,-12996,-12987,-12955,-12964,-12949,-12912,-12909,-12889,-12876,-12856,-12849,-12831,-12824,-12808,-12800,-12772,-12783,-12762,-12765,-12752,-12752,-12717,-12705,-12681,-12678,-12636,-12632,-12611,-12614,-12568,-12570,-12562,-12531,-12526,-12487,-12480,-12444,-12432,-12413,-12402,-12396,-12382,-12363,-12372,-12433,-12478,-12550,-12625,-12711,-12798,-12865,-12897,-12926,-12961,-12967,-13003,-13001,-13008,-12984,-12983,-13011,-12995,-12982,-12997,-12978,-12961,-12964,-12931,-12948,-12931,-12935,-12930,-12931,-12923,-12946,-12941,-12930,-12938,-12921,-12916,-12914,-12893,-12854,-12839,-12831,-12818,-12785,-12783,-12753,-12735,-12706,-12711,-12694,-12690,-12687,-12656,-12629,-12625,-12629,-12622,-12609,-12611,-12587,-12576,-12555,-12542,-12545,-12538,-12518,-12508,-12491,-12475,-12463,-12432,-12437,-12418,-12389,-12378,-12352,-12324,-12327,-12307,-12313,-12320,-12326,-12385,-12443,-12515,-12604,-12671,-12738,-12779,-12837,-12851,-12880,-12888,-12893,-12886,-12896,-12895,-12883,-12877,-12886,-12887,-12863,-12857,-12839,-12838,-12841,-12824,-12825,-12815,-12831,-12843,-12830,-12859,-12831,-12825,-12822,-12818,-12811,-12805,-12767,-12772,-12743,-12733,-12726,-12703,-12680,-12669,-12659,-12636,-12611,-12603,-12599,-12594,-12593,-12575,-12552,-12533,-12537,-12521,-12499,-12492,-12502,-12471,-12476,-12442,-12439,-12436,-12425,-12398,-12382,-12381,-12351,-12344,-12321,-12291,-12300,-12286,-12250,-12248,-12227,-12240,-12281,-12308,-12398,-12455,-12534,-12635,-12688,-12759,-12820,-12837,-12850,-12891,-12867,-12911,-12890,-12892,-12904,-12879,-12906,-12888,-12900,-12882,-12872,-12850,-12869,-12840,-12828,-12840,-12824,-12823,-12856,-12831,-12835,-12841,-12835,-12832,-12809,-12806,-12810,-12792,-12762,-12737,-12725,-12736,-12703,-12695,-12669,-12648,-12616,-12608,-12586,-12571,-12571,-12550,-12532,-12528,-12517,-12504,-12475,-12472,-12466,-12448,-12432,-12439,-12416,-12399,-12382,-12372,-12366,-12338,-12334,-12300,-12315,-12308,-12262,-12241,-12227,-12195,-12184,-12179,-12158,-12146,-12161,-12193,-12245,-12311,-12377,-12459,-12511,-12615,-12658,-12708,-12750,-12789,-12796,-12793,-12789,-12786,-12804,-12768,-12760,-12785,-12766,-12760,-12763,-12738,-12713,-12728,-12688,-12680,-12688,-12687,-12678,-12711,-12671,-12670,-12665,-12655,-12636,-12613,-12627,-12588,-12569,-12555,-12536,-12518,-12497,-12477,-12461,-12434,-12413,-12410,-12398,-12391,-12368,-12353,-12361,-12340,-12328,-12292,-12316,-12278,-12321,-12289,-12288,-12267,-12277,-12247,-12258,-12248,-12219,-12229,-12202,-12189,-12160,-12169,-12149,-12155,-12102,-12096,-12077,-12065,-12047,-12014,-12007,-12008,-12014,-12019,-12095,-12180,-12242,-12349,-12425,-12492,-12568,-12630,-12636,-12671,-12687,-12692,-12703,-12694,-12692,-12682,-12671,-12709,-12661,-12660,-12642,-12633,-12627,-12625,-12617,-12600,-12618,-12630,-12648,-12638,-12626,-12622,-12611,-12610,-12604,-12580,-12575,-12542,-12510,-12480,-12466,-12452,-12422,-12418,-12410,-12390,-12368,-12360,-12334,-12316,-12317,-12322,-12322,-12303,-12305,-12291,-12301,-12270,-12262,-12258,-12249,-12230,-12232,-12213,-12214,-12209,-12195,-12183,-12166,-12150,-12137,-12133,-12119,-12113,-12090,-12074,-12072,-12039,-12034,-12022,-12014,-12049,-12068,-12120,-12218,-12314,-12381,-12563,-12655,-12707,-12774,-12805,-12818,-12827,-12819,-12800,-12785,-12807,-12799,-12782,-12797,-12768,-12753,-12731,-12710,-12719,-12709,-12691,-12694,-12677,-12681,-12677,-12697,-12689,-12687,-12668,-12670,-12663,-12657,-12662,-12647,-12632,-12605,-12604,-12587,-12573,-12536,-12531,-12534,-12512,-12522,-12502,-12466,-12466,-12445,-12468,-12447,-12441,-12417,-12421,-12422,-12423,-12401,-12393,-12352,-12347,-12336,-12329,-12307,-12314,-12291,-12257,-12261,-12224,-12226,-12185,-12167,-12123,-12106,-12117,-12100,-12092,-12106,-12128,-12200,-12277,-12360,-12452,-12537,-12632,-12718,-12774,-12821,-12835,-12854,-12869,-12869,-12845,-12862,-12849,-12844,-12840,-12851,-12819,-12815,-12799,-12789,-12782,-12782,-12777,-12776,-12798,-12777,-12784,-12794,-12788,-12784,-12799,-12787,-12785,-12770,-12784,-12768,-12752,-12717,-12710,-12668,-12640,-12641,-12615,-12595,-12587,-12561,-12579,-12533,-12514,-12495,-12480,-12479,-12455,-12462,-12427,-12407,-12405,-12404,-12380,-12362,-12359,-12347,-12349,-12335,-12323,-12312,-12300,-12287,-12267,-12264,-12261,-12253,-12265,-12254,-12247,-12236,-12249,-12290,-12360,-12422,-12530,-12646,-12758,-12805,-12912,-12933,-12958,-12981,-13003,-12991,-12972,-12973,-12950,-12934,-12934,-12910,-12896,-12881,-12886,-12839,-12841,-12836,-12840,-12818,-12830,-12846,-12848,-12843,-12841,-12850,-12836,-12806,-12814,-12807,-12791,-12764,-12742,-12719,-12687,-12684,-12652,-12635,-12586,-12594,-12585,-12557,-12522,-12535,-12532,-12528,-12506,-12509,-12495,-12453,-12460,-12459,-12440,-12421,-12414,-12389,-12383,-12362,-12350,-12342,-12326,-12301,-12304,-12279,-12253,-12238,-12236,-12222,-12248,-12304,-12369,-12440,-12561,-12662,-12753,-12834,-12900,-12946,-12987,-13014,-12998,-13015,-12992,-13008,-12993,-12984,-12997,-12967,-12969,-12952,-12931,-12920,-12919,-12909,-12917,-12885,-12903,-12919,-12928,-12942,-12923,-12929,-12911,-12907,-12877,-12886,-12856,-12858,-12844,-12837,-12811,-12766,-12751,-12754,-12724,-12708,-12689,-12669,-12660,-12646,-12638,-12632,-12617,-12612,-12591,-12598,-12581,-12584,-12583,-12558,-12565,-12539,-12535,-12499,-12501,-12464,-12446,-12447,-12403,-12405,-12396,-12388,-12413,-12460,-12535,-12649,-12743,-12867,-12933,-13036,-13099,-13166,-13177,-13218,-13208,-13236,-13231,-13228,-13231,-13256,-13227,-13228,-13211,-13203,-13183,-13166,-13154,-13161,-13156,-13137,-13107,-13113,-13109,-13114,-13109,-13106,-13116,-13108,-13109,-13077,-13074,-13043,-13020,-13001,-12982,-12969,-12930,-12896,-12878,-12869,-12854,-12836,-12838,-12818,-12773,-12776,-12770,-12765,-12747,-12726,-12715,-12690,-12679,-12664,-12646,-12630,-12614,-12582,-12558,-12538,-12528,-12517,-12496,-12496,-12467,-12474,-12511,-12582,-12682,-12768,-12854,-12932,-13022,-13096,-13136,-13165,-13179,-13199,-13215,-13188,-13192,-13188,-13191,-13200,-13188,-13175,-13149,-13126,-13118,-13111,-13077,-13066,-13056,-13049,-13034,-13028,-13037,-13030,-13011,-13017,-13025,-13002,-13009,-12970,-12980,-12933,-12916,-12906,-12884,-12844,-12826,-12791,-12785,-12773,-12729,-12730,-12701,-12685,-12671,-12672,-12637,-12622,-12618,-12600,-12588,-12537,-12529,-12517,-12528,-12482,-12478,-12478,-12435,-12415,-12422,-12391,-12373,-12344,-12343,-12297,-12294,-12247,-12243,-12224,-12196,-12209,-12223,-12246,-12295,-12373,-12441,-12563,-12633,-12727,-12794,-12822,-12872,-12890,-12896,-12902,-12913,-12897,-12893,-12876,-12878,-12885,-12866,-12848,-12827,-12820,-12787,-12799,-12773,-12766,-12753,-12762,-12744,-12761,-12745,-12731,-12724,-12730,-12714,-12711,-12673,-12684,-12654,-12637,-12604,-12580,-12558,-12542,-12513,-12484,-12485,-12483,-12443,-12431,-12398,-12379,-12390,-12357,-12357,-12358,-12326,-12305,-12286,-12275,-12253,-12242,-12241,-12208,-12200,-12181,-12141,-12152,-12152,-12125,-12098,-12075,-12073,-12049,-12030,-12012,-11993,-11971,-11950,-11928,-11923,-11883,-11870,-11868,-11880,-11895,-11966,-12042,-12137,-12228,-12312,-12383,-12451,-12512,-12524,-12547,-12536,-12535,-12529,-12518,-12528,-12523,-12533,-12509,-12478,-12477,-12458,-12470,-12445,-12445,-12409,-12427,-12410,-12436,-12423,-12427,-12422,-12408,-12423,-12433,-12413,-12422,-12393,-12378,-12360,-12343,-12298,-12298,-12302,-12286,-12253,-12255,-12210,-12181,-12199,-12180,-12183,-12168,-12144,-12138,-12130,-12103,-12108,-12097,-12073,-12082,-12068,-12048,-12046,-12024,-12005,-11995,-11985,-11975,-11930,-11923,-11893,-11888,-11859,-11848,-11828,-11819,-11827,-11817,-11850,-11882,-11960,-12039,-12129,-12240,-12316,-12394,-12432,-12481,-12508,-12524,-12518,-12500,-12490,-12500,-12475,-12466,-12480,-12457,-12452,-12417,-12428,-12415,-12409,-12401,-12395,-12393,-12408,-12413,-12384,-12409,-12433,-12429,-12406,-12420,-12407,-12389,-12374,-12366,-12324,-12320,-12287,-12273,-12268,-12232,-12217,-12203,-12188,-12169,-12157,-12146,-12136,-12129,-12105,-12092,-12081,-12085,-12080,-12078,-12039,-12032,-12034,-12024,-12013,-11988,-11975,-11942,-11945,-11930,-11903,-11894,-11878,-11860,-11854,-11858,-11826,-11863,-11888,-11963,-12049,-12150,-12262,-12354,-12458,-12521,-12596,-12627,-12653,-12673,-12667,-12686,-12672,-12664,-12666,-12675,-12672,-12690,-12663,-12669,-12631,-12626,-12618,-12621,-12602,-12587,-12598,-12606,-12597,-12612,-12618,-12617,-12603,-12609,-12578,-12564,-12548,-12532,-12524,-12506,-12482,-12452,-12442,-12401,-12385,-12385,-12358,-12337,-12317,-12312,-12283,-12263,-12272,-12240,-12245,-12258,-12226,-12204,-12197,-12192,-12171,-12151,-12129,-12108,-12112,-12096,-12076,-12074,-12042,-12017,-12005,-11987,-11964,-11956,-11952,-11911,-11902,-11882,-11893,-11921,-11979,-12078,-12179,-12261,-12389,-12471,-12575,-12635,-12707,-12737,-12736,-12758,-12748,-12760,-12754,-12764,-12734,-12753,-12752,-12752,-12725,-12720,-12687,-12697,-12658,-12651,-12636,-12633,-12626,-12633,-12663,-12647,-12644,-12637,-12630,-12613,-12599,-12583,-12559,-12539,-12506,-12496,-12490,-12472,-12453,-12434,-12403,-12387,-12361,-12370,-12339,-12343,-12321,-12307,-12312,-12284,-12255,-12251,-12250,-12230,-12230,-12226,-12198,-12170,-12139,-12127,-12131,-12124,-12115,-12098,-12051,-12039,-12044,-12020,-11990,-11975,-11954,-11943,-11925,-11905,-11895,-11881,-11914,-11946,-12019,-12116,-12201,-12318,-12419,-12513,-12571,-12636,-12649,-12670,-12695,-12703,-12682,-12684,-12674,-12652,-12648,-12656,-12637,-12596,-12603,-12596,-12579,-12560,-12562,-12528,-12560,-12552,-12554,-12550,-12539,-12560,-12533,-12546,-12512,-12509,-12488,-12482,-12436,-12422,-12397,-12354,-12351,-12320,-12308,-12287,-12277,-12239,-12238,-12224,-12218,-12183,-12174,-12191,-12157,-12131,-12122,-12098,-12104,-12071,-12074,-12075,-12034,-12030,-12013,-12008,-11984,-11966,-11957,-11946,-11916,-11906,-11884,-11868,-11857,-11815,-11802,-11800,-11778,-11773,-11755,-11777,-11846,-11932,-12008,-12111,-12201,-12289,-12380,-12453,-12489,-12537,-12552,-12569,-12570,-12539,-12545,-12521,-12522,-12522,-12512,-12488,-12460,-12433,-12436,-12431,-12384,-12414,-12412,-12417,-12448,-12443,-12435,-12451,-12454,-12439,-12428,-12428,-12414,-12413,-12402,-12369,-12347,-12351,-12325,-12298,-12277,-12265,-12255,-12240,-12215,-12191,-12183,-12154,-12153,-12148,-12139,-12130,-12119,-12115,-12091,-12095,-12069,-12070,-12057,-12023,-12021,-12014,-12014,-11984,-11979,-11949,-11924,-11910,-11901,-11858,-11866,-11834,-11826,-11851,-11840,-11905,-11985,-12100,-12223,-12315,-12410,-12500,-12583,-12645,-12704,-12722,-12718,-12729,-12721,-12717,-12715,-12705,-12700,-12693,-12682,-12663,-12660,-12651,-12614,-12627,-12619,-12612,-12635,-12632,-12635,-12626,-12660,-12650,-12659,-12654,-12634,-12626,-12625,-12583,-12573,-12571,-12542,-12508,-12482,-12466,-12438,-12438,-12405,-12373,-12388,-12362,-12357,-12345,-12305,-12307,-12309,-12305,-12279,-12268,-12268,-12252,-12249,-12247,-12235,-12206,-12184,-12184,-12168,-12161,-12128,-12118,-12085,-12079,-12060,-12016,-12018,-11999,-12030,-12051,-12108,-12198,-12293,-12409,-12525,-12648,-12761,-12820,-12889,-12908,-12944,-12958,-12962,-12955,-12943,-12941,-12918,-12911,-12894,-12887,-12857,-12875,-12830,-12839,-12824,-12803,-12814,-12820,-12826,-12813,-12829,-12842,-12810,-12822,-12825,-12814,-12809,-12788,-12762,-12748,-12719,-12704,-12693,-12661,-12634,-12610,-12593,-12581,-12569,-12548,-12546,-12550,-12516,-12508,-12484,-12474,-12469,-12440,-12431,-12410,-12408,-12382,-12370,-12375,-12365,-12337,-12354,-12316,-12314,-12274,-12231,-12213,-12196,-12164,-12167,-12156,-12127,-12158,-12199,-12258,-12322,-12463,-12558,-12674,-12776,-12855,-12948,-12986,-13005,-13032,-13053,-13028,-12991,-12985,-12986,-12952,-12956,-12945,-12916,-12926,-12893,-12875,-12870,-12865,-12835,-12837,-12843,-12847,-12854,-12848,-12854,-12838,-12848,-12835,-12807,-12809,-12786,-12762,-12761,-12737,-12690,-12674,-12648,-12635,-12639,-12612,-12601,-12596,-12589,-12571,-12566,-12536,-12524,-12508,-12523,-12489,-12497,-12476,-12478,-12461,-12444,-12436,-12442,-12414,-12376,-12378,-12343,-12360,-12344,-12290,-12283,-12282,-12278,-12281,-12328,-12414,-12518,-12616,-12730,-12815,-12919,-12984,-13027,-13056,-13084,-13094,-13086,-13098,-13064,-13091,-13058,-13073,-13052,-13045,-13027,-13020,-12988,-12978,-12980,-12963,-12995,-12992,-13005,-13010,-13019,-13027,-13026,-13038,-13001,-13009,-12989,-12981,-12967,-12945,-12941,-12925,-12912,-12914,-12897,-12868,-12841,-12852,-12807,-12830,-12801,-12787,-12761,-12747,-12739,-12737,-12753,-12708,-12691,-12683,-12640,-12674,-12646,-12614,-12597,-12588,-12574,-12556,-12525,-12521,-12495,-12484,-12443,-12434,-12412,-12385,-12349,-12399,-12425,-12482,-12571,-12675,-12778,-12874,-12965,-13073,-13155,-13216,-13242,-13262,-13273,-13298,-13283,-13312,-13323,-13334,-13325,-13333,-13336,-13325,-13303,-13311,-13273,-13270,-13265,-13239,-13236,-13247,-13249,-13229,-13239,-13221,-13200,-13197,-13178,-13176,-13143,-13116,-13070,-13058,-12997,-12994,-12972,-12919,-12917,-12896,-12881,-12846,-12837,-12827,-12806,-12780,-12753,-12749,-12731,-12704,-12678,-12669,-12668,-12668,-12632,-12600,-12580,-12559,-12555,-12530,-12500,-12484,-12477,-12464,-12439,-12405,-12369,-12357,-12348,-12315,-12286,-12259,-12247,-12239,-12218,-12215,-12226,-12237,-12322,-12425,-12505,-12624,-12711,-12814,-12869,-12939,-12979,-12987,-12995,-13000,-13022,-13021,-13002,-13007,-13008,-13004,-12992,-12977,-12977,-12962,-12953,-12936,-12933,-12920,-12915,-12914,-12916,-12907,-12946,-12918,-12910,-12896,-12893,-12867,-12874,-12826,-12829,-12818,-12789,-12762,-12754,-12731,-12699,-12699,-12694,-12676,-12679,-12654,-12650,-12621,-12626,-12602,-12581,-12572,-12559,-12537,-12520,-12522,-12502,-12494,-12464,-12448,-12450,-12432,-12398,-12371,-12366,-12328,-12332,-12303,-12274,-12274,-12247,-12239,-12228,-12201,-12173,-12182,-12152,-12113,-12142,-12106,-12091,-12084,-12067,-12103,-12167,-12248,-12335,-12455,-12554,-12659,-12718,-12774,-12836,-12873,-12877,-12870,-12881,-12888,-12883,-12865,-12881,-12880,-12872,-12851,-12842,-12810,-12815,-12810,-12789,-12768,-12780,-12792,-12806,-12808,-12813,-12827,-12851,-12830,-12824,-12804,-12796,-12775,-12779,-12732,-12708,-12693,